#[MATERIAL DEFINITION FOR MC-GPU: interaction mean free path and sampling data from PENELOPE 2006]
#[MATERIAL NAME]
# POLYMETHYL METHACRALATE (LUCITE, PERSPEX, PLEXIGLASS)  (224)  
#[NOMINAL DENSITY (g/cm^3)]
#   1.19000000
#[NUMBER OF DATA VALUES]
#  12000
#[MEAN FREE PATHS (cm) (ie, average distance between interactions)]
#[Energy (eV)     | Rayleigh        | Compton         | Photoelectric   | TOTAL (+pair prod) (cm) | Rayleigh: max cumul prob F^2]
  5.0000000000E+03  1.9979067775E+00  6.4150260983E+00  3.2009224338E-02  3.1350515318E-02  3.4013211844E-01
  5.0100000000E+03  2.0024737832E+00  6.4103804579E+00  3.2206412958E-02  3.1540670886E-02  3.4063890912E-01
  5.0200000000E+03  2.0070420906E+00  6.4057474351E+00  3.2404419173E-02  3.1731582424E-02  3.4114482945E-01
  5.0300000000E+03  2.0116116976E+00  6.4011269708E+00  3.2603244730E-02  3.1923251257E-02  3.4164988417E-01
  5.0400000000E+03  2.0161826020E+00  6.3965190061E+00  3.2802891381E-02  3.2115678710E-02  3.4215407856E-01
  5.0500000000E+03  2.0207548015E+00  6.3919234823E+00  3.3003360873E-02  3.2308866104E-02  3.4265741786E-01
  5.0600000000E+03  2.0253282939E+00  6.3873403414E+00  3.3204654957E-02  3.2502814757E-02  3.4315990728E-01
  5.0700000000E+03  2.0299030771E+00  6.3827695256E+00  3.3406775383E-02  3.2697525989E-02  3.4366155199E-01
  5.0800000000E+03  2.0344791488E+00  6.3782109776E+00  3.3609723902E-02  3.2893001114E-02  3.4416235711E-01
  5.0900000000E+03  2.0390763559E+00  6.3737128735E+00  3.3813502264E-02  3.3089247973E-02  3.4466232776E-01
  5.1000000000E+03  2.0436783598E+00  6.3692351492E+00  3.4018112220E-02  3.3286262620E-02  3.4516146899E-01
  5.1100000000E+03  2.0482817047E+00  6.3647693326E+00  3.4223555520E-02  3.3484045240E-02  3.4565978582E-01
  5.1200000000E+03  2.0528863885E+00  6.3603153689E+00  3.4429833918E-02  3.3682597143E-02  3.4615728327E-01
  5.1300000000E+03  2.0574924089E+00  6.3558732036E+00  3.4636949163E-02  3.3881919635E-02  3.4665396628E-01
  5.1400000000E+03  2.0620997636E+00  6.3514427824E+00  3.4844903007E-02  3.4082014024E-02  3.4714983979E-01
  5.1500000000E+03  2.0667084506E+00  6.3470240517E+00  3.5053697204E-02  3.4282881612E-02  3.4764490869E-01
  5.1600000000E+03  2.0713184675E+00  6.3426169579E+00  3.5263333504E-02  3.4484523701E-02  3.4813917784E-01
  5.1700000000E+03  2.0759425075E+00  6.3382523345E+00  3.5473813661E-02  3.4686946061E-02  3.4863265208E-01
  5.1800000000E+03  2.0805776788E+00  6.3339228496E+00  3.5685139427E-02  3.4890149069E-02  3.4912533621E-01
  5.1900000000E+03  2.0852142300E+00  6.3296046635E+00  3.5897312555E-02  3.5094130619E-02  3.4961723498E-01
  5.2000000000E+03  2.0898521588E+00  6.3252977252E+00  3.6110334798E-02  3.5298892004E-02  3.5010835315E-01
  5.2100000000E+03  2.0944914631E+00  6.3210019836E+00  3.6324207910E-02  3.5504434519E-02  3.5059869541E-01
  5.2200000000E+03  2.0991321405E+00  6.3167173883E+00  3.6538933645E-02  3.5710759455E-02  3.5108826645E-01
  5.2300000000E+03  2.1037741889E+00  6.3124438891E+00  3.6754513756E-02  3.5917868101E-02  3.5157707090E-01
  5.2400000000E+03  2.1084176061E+00  6.3081814361E+00  3.6970949998E-02  3.6125761746E-02  3.5206511339E-01
  5.2500000000E+03  2.1130654978E+00  6.3039375637E+00  3.7188244125E-02  3.6334442845E-02  3.5255239850E-01
  5.2600000000E+03  2.1177332782E+00  6.2997496661E+00  3.7406397891E-02  3.6543918561E-02  3.5303893080E-01
  5.2700000000E+03  2.1224024746E+00  6.2955724969E+00  3.7625413051E-02  3.6754183274E-02  3.5352471481E-01
  5.2800000000E+03  2.1270730850E+00  6.2914060084E+00  3.7845291361E-02  3.6965238264E-02  3.5400975504E-01
  5.2900000000E+03  2.1317451069E+00  6.2872501532E+00  3.8066034575E-02  3.7177084809E-02  3.5449405596E-01
  5.3000000000E+03  2.1364185382E+00  6.2831048840E+00  3.8287644450E-02  3.7389724188E-02  3.5497762202E-01
  5.3100000000E+03  2.1410933766E+00  6.2789701541E+00  3.8510122741E-02  3.7603157673E-02  3.5546045763E-01
  5.3200000000E+03  2.1457696199E+00  6.2748459168E+00  3.8733471204E-02  3.7817386540E-02  3.5594256720E-01
  5.3300000000E+03  2.1504472659E+00  6.2707321258E+00  3.8957691595E-02  3.8032412057E-02  3.5642395508E-01
  5.3400000000E+03  2.1551384634E+00  6.2666584423E+00  3.9182785670E-02  3.8248240428E-02  3.5690462563E-01
  5.3500000000E+03  2.1598397158E+00  6.2626160506E+00  3.9408755187E-02  3.8464871603E-02  3.5738458314E-01
  5.3600000000E+03  2.1645424158E+00  6.2585838079E+00  3.9635601902E-02  3.8682303379E-02  3.5786383192E-01
  5.3700000000E+03  2.1692465609E+00  6.2545616701E+00  3.9863327573E-02  3.8900537020E-02  3.5834237622E-01
  5.3800000000E+03  2.1739521490E+00  6.2505495929E+00  4.0091933956E-02  3.9119573790E-02  3.5882022028E-01
  5.3900000000E+03  2.1786591779E+00  6.2465475327E+00  4.0321422810E-02  3.9339414946E-02  3.5929736833E-01
  5.4000000000E+03  2.1833676452E+00  6.2425554459E+00  4.0551795891E-02  3.9560061748E-02  3.5977382453E-01
  5.4100000000E+03  2.1880775489E+00  6.2385732892E+00  4.0783054959E-02  3.9781515451E-02  3.6024959307E-01
  5.4200000000E+03  2.1927888865E+00  6.2346010196E+00  4.1015201771E-02  4.0003777309E-02  3.6072467808E-01
  5.4300000000E+03  2.1975193251E+00  6.2306819668E+00  4.1248238086E-02  4.0226856300E-02  3.6119908368E-01
  5.4400000000E+03  2.2022534955E+00  6.2267781106E+00  4.1482165663E-02  4.0450747078E-02  3.6167281397E-01
  5.4500000000E+03  2.2069891422E+00  6.2228838632E+00  4.1716986260E-02  4.0675449911E-02  3.6214587300E-01
  5.4600000000E+03  2.2117262629E+00  6.2189991836E+00  4.1952701637E-02  4.0900966046E-02  3.6261826484E-01
  5.4700000000E+03  2.2164648555E+00  6.2151240306E+00  4.2189313553E-02  4.1127296728E-02  3.6308999351E-01
  5.4800000000E+03  2.2212049177E+00  6.2112583635E+00  4.2427125611E-02  4.1354729977E-02  3.6356106301E-01
  5.4900000000E+03  2.2259464472E+00  6.2074021420E+00  4.2666632229E-02  4.1583734817E-02  3.6403147733E-01
  5.5000000000E+03  2.2306894419E+00  6.2035553258E+00  4.2907051129E-02  4.1813567416E-02  3.6450124125E-01
  5.5100000000E+03  2.2354347873E+00  6.1997200739E+00  4.3148384116E-02  4.2044229460E-02  3.6497035928E-01
  5.5200000000E+03  2.2401997827E+00  6.1959390652E+00  4.3390632996E-02  4.2275730377E-02  3.6543883545E-01
  5.5300000000E+03  2.2449662830E+00  6.1921671995E+00  4.3633799575E-02  4.2508063014E-02  3.6590667380E-01
  5.5400000000E+03  2.2497342860E+00  6.1884044384E+00  4.3877885659E-02  4.2741228637E-02  3.6637387832E-01
  5.5500000000E+03  2.2545037894E+00  6.1846507435E+00  4.4122893055E-02  4.2975228509E-02  3.6684045300E-01
  5.5600000000E+03  2.2592747911E+00  6.1809060767E+00  4.4368823571E-02  4.3210063892E-02  3.6730640178E-01
  5.5700000000E+03  2.2640472887E+00  6.1771704000E+00  4.4615679012E-02  4.3445736045E-02  3.6777172859E-01
  5.5800000000E+03  2.2688212802E+00  6.1734436758E+00  4.4863461187E-02  4.3682246225E-02  3.6823643735E-01
  5.5900000000E+03  2.2735967632E+00  6.1697258667E+00  4.5112171904E-02  4.3919595687E-02  3.6870053194E-01
  5.6000000000E+03  2.2783748686E+00  6.1660197664E+00  4.5361812971E-02  4.4157786254E-02  3.6916401623E-01
  5.6100000000E+03  2.2831715494E+00  6.1623650696E+00  4.5612386195E-02  4.4396827287E-02  3.6962689405E-01
  5.6200000000E+03  2.2879697590E+00  6.1587190420E+00  4.5863893385E-02  4.4636711510E-02  3.7008916923E-01
  5.6300000000E+03  2.2927694952E+00  6.1550816477E+00  4.6116336351E-02  4.4877440170E-02  3.7055084558E-01
  5.6400000000E+03  2.2975707560E+00  6.1514528510E+00  4.6369716902E-02  4.5119014514E-02  3.7101192686E-01
  5.6500000000E+03  2.3023735389E+00  6.1478326163E+00  4.6624036846E-02  4.5361435785E-02  3.7147241685E-01
  5.6600000000E+03  2.3071778418E+00  6.1442209084E+00  4.6879297994E-02  4.5604705222E-02  3.7193231927E-01
  5.6700000000E+03  2.3119836625E+00  6.1406176922E+00  4.7135502156E-02  4.5848824064E-02  3.7239163785E-01
  5.6800000000E+03  2.3167909988E+00  6.1370229327E+00  4.7392651141E-02  4.6093793548E-02  3.7285037628E-01
  5.6900000000E+03  2.3215998485E+00  6.1334365953E+00  4.7650746760E-02  4.6339614907E-02  3.7330853825E-01
  5.7000000000E+03  2.3264263761E+00  6.1298993860E+00  4.7909790825E-02  4.6586298209E-02  3.7376612740E-01
  5.7100000000E+03  2.3312556430E+00  6.1263734067E+00  4.8169785145E-02  4.6833836651E-02  3.7422314740E-01
  5.7200000000E+03  2.3360864582E+00  6.1228556199E+00  4.8430731534E-02  4.7082230817E-02  3.7467960184E-01
  5.7300000000E+03  2.3409188194E+00  6.1193459924E+00  4.8692631801E-02  4.7331481933E-02  3.7513549435E-01
  5.7400000000E+03  2.3457527245E+00  6.1158444910E+00  4.8955487759E-02  4.7581591223E-02  3.7559082849E-01
  5.7500000000E+03  2.3505881712E+00  6.1123510828E+00  4.9219301220E-02  4.7832559908E-02  3.7604560784E-01
  5.7600000000E+03  2.3554251574E+00  6.1088657350E+00  4.9484073996E-02  4.8084389209E-02  3.7649983595E-01
  5.7700000000E+03  2.3602636809E+00  6.1053884152E+00  4.9749807901E-02  4.8337080341E-02  3.7695351633E-01
  5.7800000000E+03  2.3651037395E+00  6.1019190910E+00  5.0016504746E-02  4.8590634520E-02  3.7740665252E-01
  5.7900000000E+03  2.3699560757E+00  6.0984851945E+00  5.0284166346E-02  4.8845059283E-02  3.7785924799E-01
  5.8000000000E+03  2.3748157176E+00  6.0950738092E+00  5.0552794513E-02  4.9100353029E-02  3.7831130623E-01
  5.8100000000E+03  2.3796769271E+00  6.0916702039E+00  5.0822391062E-02  4.9356513613E-02  3.7876283070E-01
  5.8200000000E+03  2.3845397020E+00  6.0882743475E+00  5.1092957806E-02  4.9613542242E-02  3.7921382484E-01
  5.8300000000E+03  2.3894040400E+00  6.0848862091E+00  5.1364496560E-02  4.9871440120E-02  3.7966429207E-01
  5.8400000000E+03  2.3942699391E+00  6.0815057579E+00  5.1637009138E-02  5.0130208450E-02  3.8011423581E-01
  5.8500000000E+03  2.3991373970E+00  6.0781329633E+00  5.1910497355E-02  5.0389848431E-02  3.8056365946E-01
  5.8600000000E+03  2.4040064115E+00  6.0747677951E+00  5.2184963027E-02  5.0650361260E-02  3.8101256638E-01
  5.8700000000E+03  2.4088769806E+00  6.0714102230E+00  5.2460407967E-02  5.0911748132E-02  3.8146095994E-01
  5.8800000000E+03  2.4137525464E+00  6.0680691755E+00  5.2736833992E-02  5.1174012426E-02  3.8190884349E-01
  5.8900000000E+03  2.4186418520E+00  6.0647672410E+00  5.3014242919E-02  5.1437160963E-02  3.8235622036E-01
  5.9000000000E+03  2.4235327422E+00  6.0614727000E+00  5.3292636562E-02  5.1701187277E-02  3.8280309386E-01
  5.9100000000E+03  2.4284252148E+00  6.0581855233E+00  5.3572016738E-02  5.1966092554E-02  3.8324946730E-01
  5.9200000000E+03  2.4333192677E+00  6.0549056821E+00  5.3852385265E-02  5.2231877979E-02  3.8369534395E-01
  5.9300000000E+03  2.4382148986E+00  6.0516331477E+00  5.4133743958E-02  5.2498544733E-02  3.8414072710E-01
  5.9400000000E+03  2.4431121056E+00  6.0483678916E+00  5.4416094635E-02  5.2766093995E-02  3.8458562029E-01
  5.9500000000E+03  2.4480108863E+00  6.0451098852E+00  5.4699439114E-02  5.3034526944E-02  3.8503002680E-01
  5.9600000000E+03  2.4529112387E+00  6.0418591005E+00  5.4983779212E-02  5.3303844754E-02  3.8547394968E-01
  5.9700000000E+03  2.4578131607E+00  6.0386155092E+00  5.5269116747E-02  5.3574048596E-02  3.8591739199E-01
  5.9800000000E+03  2.4627260376E+00  6.0354039197E+00  5.5555453537E-02  5.3845146106E-02  3.8636035676E-01
  5.9900000000E+03  2.4676458857E+00  6.0322136087E+00  5.5842791401E-02  5.4117135822E-02  3.8680284702E-01
  6.0000000000E+03  2.4725673311E+00  6.0290303014E+00  5.6131132157E-02  5.4390015238E-02  3.8724486578E-01
  6.0100000000E+03  2.4774903717E+00  6.0258539710E+00  5.6422195560E-02  5.4665398139E-02  3.8768641603E-01
  6.0200000000E+03  2.4824150054E+00  6.0226845904E+00  5.6714280272E-02  5.4941686149E-02  3.8812750075E-01
  6.0300000000E+03  2.4873412299E+00  6.0195221331E+00  5.7007388167E-02  5.5218880467E-02  3.8856812292E-01
  6.0400000000E+03  2.4922690432E+00  6.0163665725E+00  5.7301521122E-02  5.5496982291E-02  3.8900828549E-01
  6.0500000000E+03  2.4971984432E+00  6.0132178821E+00  5.7596681016E-02  5.5775992815E-02  3.8944799140E-01
  6.0600000000E+03  2.5021294277E+00  6.0100760356E+00  5.7892869725E-02  5.6055913231E-02  3.8988724358E-01
  6.0700000000E+03  2.5070619947E+00  6.0069410069E+00  5.8190089128E-02  5.6336744729E-02  3.9032604495E-01
  6.0800000000E+03  2.5120087446E+00  6.0038463634E+00  5.8488341102E-02  5.6618497885E-02  3.9076439841E-01
  6.0900000000E+03  2.5169585877E+00  6.0007623474E+00  5.8787627526E-02  5.6901165759E-02  3.9120230686E-01
  6.1000000000E+03  2.5219100391E+00  5.9976849716E+00  5.9087950279E-02  5.7184748438E-02  3.9163977317E-01
  6.1100000000E+03  2.5268630968E+00  5.9946142108E+00  5.9389311240E-02  5.7469247102E-02  3.9207680022E-01
  6.1200000000E+03  2.5318177587E+00  5.9915500400E+00  5.9691712288E-02  5.7754662929E-02  3.9251339085E-01
  6.1300000000E+03  2.5367740225E+00  5.9884924344E+00  5.9995155303E-02  5.8040997094E-02  3.9294954793E-01
  6.1400000000E+03  2.5417318863E+00  5.9854413693E+00  6.0299642166E-02  5.8328250772E-02  3.9338527426E-01
  6.1500000000E+03  2.5466913480E+00  5.9823968199E+00  6.0605174755E-02  5.8616425132E-02  3.9382057269E-01
  6.1600000000E+03  2.5516524055E+00  5.9793587619E+00  6.0911754953E-02  5.8905521343E-02  3.9425544601E-01
  6.1700000000E+03  2.5566150566E+00  5.9763271708E+00  6.1219384640E-02  5.9195540569E-02  3.9468989703E-01
  6.1800000000E+03  2.5615927251E+00  5.9733379044E+00  6.1528065698E-02  5.9486494771E-02  3.9512392853E-01
  6.1900000000E+03  2.5665720861E+00  5.9703551561E+00  6.1837800008E-02  5.9778374540E-02  3.9555754329E-01
  6.2000000000E+03  2.5715530651E+00  5.9673787084E+00  6.2148589451E-02  6.0071180978E-02  3.9599074408E-01
  6.2100000000E+03  2.5765356600E+00  5.9644085378E+00  6.2460435911E-02  6.0364915239E-02  3.9642353365E-01
  6.2200000000E+03  2.5815198687E+00  5.9614446210E+00  6.2773341270E-02  6.0659578477E-02  3.9685591474E-01
  6.2300000000E+03  2.5865056892E+00  5.9584869349E+00  6.3087307411E-02  6.0955171845E-02  3.9728789009E-01
  6.2400000000E+03  2.5914931194E+00  5.9555354563E+00  6.3402336216E-02  6.1251696489E-02  3.9771946242E-01
  6.2500000000E+03  2.5964821573E+00  5.9525901624E+00  6.3718429570E-02  6.1549153555E-02  3.9815063445E-01
  6.2600000000E+03  2.6014728007E+00  5.9496510303E+00  6.4035589356E-02  6.1847544187E-02  3.9858140888E-01
  6.2700000000E+03  2.6064650477E+00  5.9467180373E+00  6.4353817458E-02  6.2146869524E-02  3.9901178839E-01
  6.2800000000E+03  2.6114709387E+00  5.9438235015E+00  6.4673115760E-02  6.2447141160E-02  3.9944177569E-01
  6.2900000000E+03  2.6164793193E+00  5.9409372889E+00  6.4993486148E-02  6.2748350691E-02  3.9987137343E-01
  6.3000000000E+03  2.6214893260E+00  5.9380570594E+00  6.5314930507E-02  6.3050498507E-02  4.0030058428E-01
  6.3100000000E+03  2.6265009570E+00  5.9351827912E+00  6.5637450721E-02  6.3353585740E-02  4.0072941091E-01
  6.3200000000E+03  2.6315142101E+00  5.9323144624E+00  6.5961048676E-02  6.3657613518E-02  4.0115785594E-01
  6.3300000000E+03  2.6365290834E+00  5.9294520514E+00  6.6285726259E-02  6.3962582967E-02  4.0158592203E-01
  6.3400000000E+03  2.6415455747E+00  5.9265955367E+00  6.6611485355E-02  6.4268495208E-02  4.0201361180E-01
  6.3500000000E+03  2.6465636820E+00  5.9237448969E+00  6.6938327851E-02  6.4575351363E-02  4.0244092787E-01
  6.3600000000E+03  2.6515834034E+00  5.9209001106E+00  6.7266255635E-02  6.4883152549E-02  4.0286787264E-01
  6.3700000000E+03  2.6566047367E+00  5.9180611567E+00  6.7595270592E-02  6.5191899881E-02  4.0329444839E-01
  6.3800000000E+03  2.6616363887E+00  5.9152515720E+00  6.7925374611E-02  6.5501602632E-02  4.0372065745E-01
  6.3900000000E+03  2.6666732690E+00  5.9124574367E+00  6.8256569579E-02  6.5812257273E-02  4.0414650210E-01
  6.4000000000E+03  2.6717117824E+00  5.9096689874E+00  6.8588857384E-02  6.6123861564E-02  4.0457198462E-01
  6.4100000000E+03  2.6767519270E+00  5.9068862036E+00  6.8922239916E-02  6.6436416611E-02  4.0499710729E-01
  6.4200000000E+03  2.6817937007E+00  5.9041090651E+00  6.9256719061E-02  6.6749923517E-02  4.0542187238E-01
  6.4300000000E+03  2.6868371014E+00  5.9013375516E+00  6.9592296711E-02  6.7064383381E-02  4.0584628216E-01
  6.4400000000E+03  2.6918821273E+00  5.8985716430E+00  6.9928974752E-02  6.7379797300E-02  4.0627033889E-01
  6.4500000000E+03  2.6969287763E+00  5.8958113194E+00  7.0266755076E-02  6.7696166367E-02  4.0669404479E-01
  6.4600000000E+03  2.7019770463E+00  5.8930565607E+00  7.0605639573E-02  6.8013491675E-02  4.0711740213E-01
  6.4700000000E+03  2.7070269355E+00  5.8903073472E+00  7.0945630131E-02  6.8331774311E-02  4.0754041312E-01
  6.4800000000E+03  2.7120821329E+00  5.8875737439E+00  7.1286728642E-02  6.8651019097E-02  4.0796308000E-01
  6.4900000000E+03  2.7171469726E+00  5.8848674807E+00  7.1628936997E-02  6.8971231607E-02  4.0838540499E-01
  6.5000000000E+03  2.7222134511E+00  5.8821666252E+00  7.1972257087E-02  6.9292404873E-02  4.0880739029E-01
  6.5100000000E+03  2.7272815663E+00  5.8794711583E+00  7.2316690802E-02  6.9614539975E-02  4.0922903811E-01
  6.5200000000E+03  2.7323513163E+00  5.8767810612E+00  7.2662240035E-02  6.9937637988E-02  4.0965035065E-01
  6.5300000000E+03  2.7374226990E+00  5.8740963148E+00  7.3008906678E-02  7.0261699986E-02  4.1007133011E-01
  6.5400000000E+03  2.7424957126E+00  5.8714169003E+00  7.3356692622E-02  7.0586727038E-02  4.1049197865E-01
  6.5500000000E+03  2.7475703549E+00  5.8687427991E+00  7.3705599761E-02  7.0912720213E-02  4.1091229848E-01
  6.5600000000E+03  2.7526466242E+00  5.8660739924E+00  7.4055629988E-02  7.1239680573E-02  4.1133229175E-01
  6.5700000000E+03  2.7577245183E+00  5.8634104619E+00  7.4406785194E-02  7.1567609182E-02  4.1175196063E-01
  6.5800000000E+03  2.7628040354E+00  5.8607521890E+00  7.4759067275E-02  7.1896507097E-02  4.1217130728E-01
  6.5900000000E+03  2.7678935429E+00  5.8581222667E+00  7.5112478123E-02  7.2226384587E-02  4.1259033385E-01
  6.6000000000E+03  2.7729874252E+00  5.8555050523E+00  7.5467019633E-02  7.2557236662E-02  4.1300904250E-01
  6.6100000000E+03  2.7780829485E+00  5.8528929670E+00  7.5822693699E-02  7.2889061385E-02  4.1342743535E-01
  6.6200000000E+03  2.7831801110E+00  5.8502859931E+00  7.6179502215E-02  7.3221859806E-02  4.1384551456E-01
  6.6300000000E+03  2.7882789106E+00  5.8476841127E+00  7.6537447077E-02  7.3555632970E-02  4.1426328224E-01
  6.6400000000E+03  2.7933793454E+00  5.8450873084E+00  7.6896530180E-02  7.3890381920E-02  4.1468074051E-01
  6.6500000000E+03  2.7984814135E+00  5.8424955625E+00  7.7256753419E-02  7.4226107696E-02  4.1509789150E-01
  6.6600000000E+03  2.8035851129E+00  5.8399088577E+00  7.7618118690E-02  7.4562811335E-02  4.1551473732E-01
  6.6700000000E+03  2.8086904417E+00  5.8373271766E+00  7.7980627888E-02  7.4900493871E-02  4.1593128008E-01
  6.6800000000E+03  2.8137973980E+00  5.8347505019E+00  7.8344282912E-02  7.5239156336E-02  4.1634752187E-01
  6.6900000000E+03  2.8189061873E+00  5.8321793985E+00  7.8709085656E-02  7.5578800003E-02  4.1676346478E-01
  6.7000000000E+03  2.8240268934E+00  5.8296420895E+00  7.9075038019E-02  7.5919437984E-02  4.1717911092E-01
  6.7100000000E+03  2.8291492437E+00  5.8271096661E+00  7.9442141897E-02  7.6261059153E-02  4.1759446236E-01
  6.7200000000E+03  2.8342732361E+00  5.8245821116E+00  7.9810399187E-02  7.6603664531E-02  4.1800952119E-01
  6.7300000000E+03  2.8393988688E+00  5.8220594095E+00  8.0179811789E-02  7.6947255137E-02  4.1842428944E-01
  6.7400000000E+03  2.8445261398E+00  5.8195415432E+00  8.0550381599E-02  7.7291831985E-02  4.1883876892E-01
  6.7500000000E+03  2.8496550473E+00  5.8170284963E+00  8.0922110516E-02  7.7637396088E-02  4.1925296137E-01
  6.7600000000E+03  2.8547855893E+00  5.8145202525E+00  8.1295000439E-02  7.7983948454E-02  4.1966686853E-01
  6.7700000000E+03  2.8599177640E+00  5.8120167955E+00  8.1669053267E-02  7.8331490090E-02  4.2008049211E-01
  6.7800000000E+03  2.8650515693E+00  5.8095181092E+00  8.2044270899E-02  7.8680021998E-02  4.2049383383E-01
  6.7900000000E+03  2.8701870036E+00  5.8070241774E+00  8.2420655234E-02  7.9029545178E-02  4.2090689542E-01
  6.8000000000E+03  2.8753251594E+00  5.8045381112E+00  8.2798208173E-02  7.9380062047E-02  4.2131967859E-01
  6.8100000000E+03  2.8804737375E+00  5.8020818305E+00  8.3176931616E-02  7.9731583673E-02  4.2173218504E-01
  6.8200000000E+03  2.8856239595E+00  5.7996301913E+00  8.3556827463E-02  8.0084099740E-02  4.2214441649E-01
  6.8300000000E+03  2.8907758237E+00  5.7971831778E+00  8.3937897614E-02  8.0437611237E-02  4.2255637463E-01
  6.8400000000E+03  2.8959293281E+00  5.7947407746E+00  8.4320143971E-02  8.0792119152E-02  4.2296806116E-01
  6.8500000000E+03  2.9010844709E+00  5.7923029663E+00  8.4703568434E-02  8.1147624467E-02  4.2337947777E-01
  6.8600000000E+03  2.9062412502E+00  5.7898697376E+00  8.5088172906E-02  8.1504128164E-02  4.2379062616E-01
  6.8700000000E+03  2.9113996641E+00  5.7874410733E+00  8.5473959289E-02  8.1861631218E-02  4.2420150802E-01
  6.8800000000E+03  2.9165597108E+00  5.7850169580E+00  8.5860929484E-02  8.2220134605E-02  4.2461212502E-01
  6.8900000000E+03  2.9217213884E+00  5.7825973768E+00  8.6249085393E-02  8.2579639296E-02  4.2502247884E-01
  6.9000000000E+03  2.9268846950E+00  5.7801823145E+00  8.6638428920E-02  8.2940146258E-02  4.2543257117E-01
  6.9100000000E+03  2.9320498505E+00  5.7777724033E+00  8.7028961967E-02  8.3301656771E-02  4.2584240367E-01
  6.9200000000E+03  2.9372256852E+00  5.7753933608E+00  8.7420686438E-02  8.3664184369E-02  4.2625197801E-01
  6.9300000000E+03  2.9424031627E+00  5.7730187313E+00  8.7813604236E-02  8.4027717313E-02  4.2666129586E-01
  6.9400000000E+03  2.9475822812E+00  5.7706485001E+00  8.8207717265E-02  8.4392256560E-02  4.2707035889E-01
  6.9500000000E+03  2.9527630387E+00  5.7682826528E+00  8.8603027429E-02  8.4757803066E-02  4.2747916875E-01
  6.9600000000E+03  2.9579454335E+00  5.7659211750E+00  8.8999536632E-02  8.5124357781E-02  4.2788772709E-01
  6.9700000000E+03  2.9631294637E+00  5.7635640524E+00  8.9397246780E-02  8.5491921653E-02  4.2829603557E-01
  6.9800000000E+03  2.9683151274E+00  5.7612112707E+00  8.9796159776E-02  8.5860495626E-02  4.2870409585E-01
  6.9900000000E+03  2.9735024229E+00  5.7588628157E+00  9.0196277526E-02  8.6230080644E-02  4.2911190956E-01
  7.0000000000E+03  2.9786913484E+00  5.7565186733E+00  9.0597601936E-02  8.6600677644E-02  4.2951947835E-01
  7.0100000000E+03  2.9838819019E+00  5.7541788295E+00  9.1003134443E-02  8.6975027436E-02  4.2992680386E-01
  7.0200000000E+03  2.9890740818E+00  5.7518432702E+00  9.1409899966E-02  8.7350409994E-02  4.3033388773E-01
  7.0300000000E+03  2.9942745069E+00  5.7495316016E+00  9.1817900488E-02  8.7726836547E-02  4.3074073159E-01
  7.0400000000E+03  2.9994787045E+00  5.7472304632E+00  9.2227137994E-02  8.8104301289E-02  4.3114733708E-01
  7.0500000000E+03  3.0046845410E+00  5.7449335101E+00  9.2637614468E-02  8.8482801912E-02  4.3155370583E-01
  7.0600000000E+03  3.0098920144E+00  5.7426407288E+00  9.3049331893E-02  8.8862339383E-02  4.3195983945E-01
  7.0700000000E+03  3.0151011231E+00  5.7403521059E+00  9.3462292256E-02  8.9242914666E-02  4.3236573958E-01
  7.0800000000E+03  3.0203118651E+00  5.7380676280E+00  9.3876497540E-02  8.9624528724E-02  4.3277140784E-01
  7.0900000000E+03  3.0255242388E+00  5.7357872816E+00  9.4291949732E-02  9.0007182515E-02  4.3317684582E-01
  7.1000000000E+03  3.0307382422E+00  5.7335110536E+00  9.4708650818E-02  9.0390876993E-02  4.3358205493E-01
  7.1100000000E+03  3.0359538737E+00  5.7312389307E+00  9.5126602783E-02  9.0775613110E-02  4.3398703646E-01
  7.1200000000E+03  3.0411711314E+00  5.7289708998E+00  9.5545807615E-02  9.1161391815E-02  4.3439179170E-01
  7.1300000000E+03  3.0463900136E+00  5.7267069477E+00  9.5966267300E-02  9.1548214052E-02  4.3479632192E-01
  7.1400000000E+03  3.0516130962E+00  5.7244546792E+00  9.6387983826E-02  9.1936085067E-02  4.3520062841E-01
  7.1500000000E+03  3.0568436890E+00  5.7222237997E+00  9.6810959180E-02  9.2325011441E-02  4.3560471247E-01
  7.1600000000E+03  3.0620759181E+00  5.7199969057E+00  9.7235195350E-02  9.2714984362E-02  4.3600857536E-01
  7.1700000000E+03  3.0673097817E+00  5.7177739846E+00  9.7660694325E-02  9.3106004763E-02  4.3641221837E-01
  7.1800000000E+03  3.0725452781E+00  5.7155550237E+00  9.8087458094E-02  9.3498073575E-02  4.3681564277E-01
  7.1900000000E+03  3.0777824053E+00  5.7133400104E+00  9.8515488646E-02  9.3891191725E-02  4.3721884985E-01
  7.2000000000E+03  3.0830211618E+00  5.7111289323E+00  9.8944787969E-02  9.4285360136E-02  4.3762184087E-01
  7.2100000000E+03  3.0882615456E+00  5.7089217770E+00  9.9375358054E-02  9.4680579727E-02  4.3802461711E-01
  7.2200000000E+03  3.0935035552E+00  5.7067185320E+00  9.9807200891E-02  9.5076851417E-02  4.3842717984E-01
  7.2300000000E+03  3.0987471886E+00  5.7045191850E+00  1.0024031847E-01  9.5474176118E-02  4.3882953033E-01
  7.2400000000E+03  3.1039924443E+00  5.7023237237E+00  1.0067471278E-01  9.5872554740E-02  4.3923166985E-01
  7.2500000000E+03  3.1092393204E+00  5.7001321359E+00  1.0111038582E-01  9.6271988190E-02  4.3963359966E-01
  7.2600000000E+03  3.1144932774E+00  5.6979604465E+00  1.0154733957E-01  9.6672487250E-02  4.4003532103E-01
  7.2700000000E+03  3.1197515957E+00  5.6958005810E+00  1.0198557603E-01  9.7074048050E-02  4.4043683523E-01
  7.2800000000E+03  3.1250115456E+00  5.6936445014E+00  1.0242509719E-01  9.7476666584E-02  4.4083814351E-01
  7.2900000000E+03  3.1302731253E+00  5.6914921959E+00  1.0286590505E-01  9.7880343747E-02  4.4123924713E-01
  7.3000000000E+03  3.1355363332E+00  5.6893436527E+00  1.0330800158E-01  9.8285080429E-02  4.4164014736E-01
  7.3100000000E+03  3.1408011675E+00  5.6871988602E+00  1.0375138880E-01  9.8690877520E-02  4.4204084545E-01
  7.3200000000E+03  3.1460676264E+00  5.6850578065E+00  1.0419606869E-01  9.9097735903E-02  4.4244134266E-01
  7.3300000000E+03  3.1513357083E+00  5.6829204802E+00  1.0464204325E-01  9.9505656460E-02  4.4284164024E-01
  7.3400000000E+03  3.1566054114E+00  5.6807868697E+00  1.0508931446E-01  9.9914640068E-02  4.4324173945E-01
  7.3500000000E+03  3.1618767340E+00  5.6786569635E+00  1.0553788433E-01  1.0032468760E-01  4.4364164154E-01
  7.3600000000E+03  3.1671496745E+00  5.6765307500E+00  1.0598775485E-01  1.0073579993E-01  4.4404134776E-01
  7.3700000000E+03  3.1724242310E+00  5.6744082180E+00  1.0643892802E-01  1.0114797793E-01  4.4444085936E-01
  7.3800000000E+03  3.1777070504E+00  5.6723087765E+00  1.0689140583E-01  1.0156123547E-01  4.4484017760E-01
  7.3900000000E+03  3.1829927748E+00  5.6702166822E+00  1.0734519027E-01  1.0197556309E-01  4.4523930371E-01
  7.4000000000E+03  3.1882801258E+00  5.6681281872E+00  1.0780028335E-01  1.0239095917E-01  4.4563823894E-01
  7.4100000000E+03  3.1935691018E+00  5.6660432801E+00  1.0825668706E-01  1.0280742457E-01  4.4603698454E-01
  7.4200000000E+03  3.1988597010E+00  5.6639619502E+00  1.0871440339E-01  1.0322496013E-01  4.4643554176E-01
  7.4300000000E+03  3.2041519217E+00  5.6618841864E+00  1.0917343435E-01  1.0364356670E-01  4.4683391183E-01
  7.4400000000E+03  3.2094457622E+00  5.6598099779E+00  1.0963378193E-01  1.0406324514E-01  4.4723209593E-01
  7.4500000000E+03  3.2147412209E+00  5.6577393137E+00  1.1009544814E-01  1.0448399627E-01  4.4763009501E-01
  7.4600000000E+03  3.2200382962E+00  5.6556721831E+00  1.1055843496E-01  1.0490582094E-01  4.4802791001E-01
  7.4700000000E+03  3.2253369862E+00  5.6536085754E+00  1.1102274439E-01  1.0532871999E-01  4.4842554188E-01
  7.4800000000E+03  3.2306372893E+00  5.6515484798E+00  1.1148837845E-01  1.0575269423E-01  4.4882299156E-01
  7.4900000000E+03  3.2359392040E+00  5.6494918856E+00  1.1195533912E-01  1.0617774451E-01  4.4922025999E-01
  7.5000000000E+03  3.2412489911E+00  5.6474570109E+00  1.1242362840E-01  1.0660388491E-01  4.4961734814E-01
  7.5100000000E+03  3.2465617937E+00  5.6454296317E+00  1.1289324830E-01  1.0703110614E-01  4.5001425692E-01
  7.5200000000E+03  3.2518762176E+00  5.6434056766E+00  1.1336420082E-01  1.0745940607E-01  4.5041098730E-01
  7.5300000000E+03  3.2571922612E+00  5.6413851353E+00  1.1383648795E-01  1.0788878554E-01  4.5080754021E-01
  7.5400000000E+03  3.2625099229E+00  5.6393679975E+00  1.1431011170E-01  1.0831924533E-01  4.5120391659E-01
  7.5500000000E+03  3.2678292009E+00  5.6373542530E+00  1.1478507407E-01  1.0875078628E-01  4.5160011739E-01
  7.5600000000E+03  3.2731500936E+00  5.6353438917E+00  1.1526137706E-01  1.0918340917E-01  4.5199614355E-01
  7.5700000000E+03  3.2784725995E+00  5.6333369032E+00  1.1573902267E-01  1.0961711481E-01  4.5239199600E-01
  7.5800000000E+03  3.2837967167E+00  5.6313332777E+00  1.1621801291E-01  1.1005190400E-01  4.5278767570E-01
  7.5900000000E+03  3.2891224438E+00  5.6293330049E+00  1.1669834978E-01  1.1048777753E-01  4.5318318358E-01
  7.6000000000E+03  3.2944497790E+00  5.6273360749E+00  1.1718003528E-01  1.1092473619E-01  4.5357852059E-01
  7.6100000000E+03  3.2997787208E+00  5.6253424777E+00  1.1766307141E-01  1.1136278077E-01  4.5397368765E-01
  7.6200000000E+03  3.3051137058E+00  5.6233650965E+00  1.1814746018E-01  1.1180192222E-01  4.5436868572E-01
  7.6300000000E+03  3.3104532503E+00  5.6213995487E+00  1.1863320359E-01  1.1224215809E-01  4.5476351572E-01
  7.6400000000E+03  3.3157944107E+00  5.6194372608E+00  1.1912030365E-01  1.1268348243E-01  4.5515817861E-01
  7.6500000000E+03  3.3211371852E+00  5.6174782234E+00  1.1960876237E-01  1.1312589603E-01  4.5555267532E-01
  7.6600000000E+03  3.3264815722E+00  5.6155224268E+00  1.2009858173E-01  1.1356939965E-01  4.5594700678E-01
  7.6700000000E+03  3.3318275702E+00  5.6135698614E+00  1.2058976377E-01  1.1401399406E-01  4.5634117394E-01
  7.6800000000E+03  3.3371751775E+00  5.6116205176E+00  1.2108231046E-01  1.1445968002E-01  4.5673517773E-01
  7.6900000000E+03  3.3425243925E+00  5.6096743860E+00  1.2157622384E-01  1.1490645830E-01  4.5712901909E-01
  7.7000000000E+03  3.3478752135E+00  5.6077314571E+00  1.2207150589E-01  1.1535432965E-01  4.5752269896E-01
