#[MATERIAL DEFINITION FOR MC-GPU: interaction mean free path and sampling data from PENELOPE 2006]
#[MATERIAL NAME]
# POLYETHYLENE  (222)                                           
#[NOMINAL DENSITY (g/cm^3)]
#   0.94000000
#[NUMBER OF DATA VALUES]
#  12000
#[MEAN FREE PATHS (cm) (ie, average distance between interactions)]
#[Energy (eV)     | Rayleigh        | Compton         | Photoelectric   | TOTAL (+pair prod) (cm) | Rayleigh: max cumul prob F^2]
  5.0000000000E+03  3.3060536962E+00  7.0980029426E+00  6.6601513880E-02  6.4691280293E-02  3.3483146921E-01
  5.0100000000E+03  3.3136086516E+00  7.0939572303E+00  6.7019615630E-02  6.5088252519E-02  3.3532856607E-01
  5.0200000000E+03  3.3211657552E+00  7.0899218843E+00  6.7439500516E-02  6.5486814957E-02  3.3582515354E-01
  5.0300000000E+03  3.3287250032E+00  7.0858968575E+00  6.7861172567E-02  6.5886970246E-02  3.3632123630E-01
  5.0400000000E+03  3.3362863920E+00  7.0818821030E+00  6.8284635816E-02  6.6288721019E-02  3.3681681904E-01
  5.0500000000E+03  3.3438499180E+00  7.0778775743E+00  6.8709894294E-02  6.6692069905E-02  3.3731190645E-01
  5.0600000000E+03  3.3514155776E+00  7.0738832253E+00  6.9136952034E-02  6.7097019523E-02  3.3780650303E-01
  5.0700000000E+03  3.3589833670E+00  7.0698990100E+00  6.9565813070E-02  6.7503572488E-02  3.3830061303E-01
  5.0800000000E+03  3.3665532828E+00  7.0659248827E+00  6.9996481438E-02  6.7911731410E-02  3.3879424069E-01
  5.0900000000E+03  3.3741416529E+00  7.0620051199E+00  7.0428961174E-02  6.8321509734E-02  3.3928739022E-01
  5.1000000000E+03  3.3817350320E+00  7.0581029278E+00  7.0863256315E-02  6.8732901335E-02  3.3978006583E-01
  5.1100000000E+03  3.3893305752E+00  7.0542105294E+00  7.1299370900E-02  6.9145906933E-02  3.4027227171E-01
  5.1200000000E+03  3.3969282788E+00  7.0503278811E+00  7.1737308968E-02  6.9560529114E-02  3.4076401203E-01
  5.1300000000E+03  3.4045281391E+00  7.0464549395E+00  7.2177074560E-02  6.9976770459E-02  3.4125529094E-01
  5.1400000000E+03  3.4121301526E+00  7.0425916614E+00  7.2618671717E-02  7.0394633540E-02  3.4174611260E-01
  5.1500000000E+03  3.4197343157E+00  7.0387380041E+00  7.3062104481E-02  7.0814120923E-02  3.4223648112E-01
  5.1600000000E+03  3.4273406249E+00  7.0348939248E+00  7.3507376897E-02  7.1235235169E-02  3.4272640063E-01
  5.1700000000E+03  3.4349592850E+00  7.0310873528E+00  7.3954493009E-02  7.1657986179E-02  3.4321587521E-01
  5.1800000000E+03  3.4425879687E+00  7.0273116652E+00  7.4403456863E-02  7.2082375000E-02  3.4370490896E-01
  5.1900000000E+03  3.4502188328E+00  7.0235452813E+00  7.4854272505E-02  7.2508398580E-02  3.4419350595E-01
  5.2000000000E+03  3.4578518739E+00  7.0197881602E+00  7.5306943982E-02  7.2936059457E-02  3.4468167024E-01
  5.2100000000E+03  3.4654870884E+00  7.0160402614E+00  7.5761475345E-02  7.3365360160E-02  3.4516940588E-01
  5.2200000000E+03  3.4731244727E+00  7.0123015446E+00  7.6217870643E-02  7.3796303213E-02  3.4565671689E-01
  5.2300000000E+03  3.4807640232E+00  7.0085719699E+00  7.6676133926E-02  7.4228891133E-02  3.4614360730E-01
  5.2400000000E+03  3.4884057364E+00  7.0048514974E+00  7.7136269246E-02  7.4663126430E-02  3.4663008112E-01
  5.2500000000E+03  3.4960520451E+00  7.0011468512E+00  7.7598280657E-02  7.5099013509E-02  3.4711614234E-01
  5.2600000000E+03  3.5037150297E+00  6.9974913932E+00  7.8062172212E-02  7.5536564431E-02  3.4760179494E-01
  5.2700000000E+03  3.5113802083E+00  6.9938447813E+00  7.8527947966E-02  7.5975770478E-02  3.4808704291E-01
  5.2800000000E+03  3.5190475775E+00  6.9902069775E+00  7.8995611975E-02  7.6416634134E-02  3.4857189019E-01
  5.2900000000E+03  3.5267171336E+00  6.9865779436E+00  7.9465168296E-02  7.6859157881E-02  3.4905634075E-01
  5.3000000000E+03  3.5343888731E+00  6.9829576423E+00  7.9936620986E-02  7.7303344190E-02  3.4954039852E-01
  5.3100000000E+03  3.5420627926E+00  6.9793460359E+00  8.0409974106E-02  7.7749195528E-02  3.5002406742E-01
  5.3200000000E+03  3.5497388886E+00  6.9757430873E+00  8.0885231715E-02  7.8196714353E-02  3.5050735138E-01
  5.3300000000E+03  3.5574171577E+00  6.9721487595E+00  8.1362397874E-02  7.8645903118E-02  3.5099025406E-01
  5.3400000000E+03  3.5651068529E+00  6.9685890890E+00  8.1841476645E-02  7.9096772183E-02  3.5147277890E-01
  5.3500000000E+03  3.5728053085E+00  6.9650563518E+00  8.2322472090E-02  7.9549321889E-02  3.5195492933E-01
  5.3600000000E+03  3.5805059654E+00  6.9615319976E+00  8.2805388275E-02  8.0003549108E-02  3.5243670876E-01
  5.3700000000E+03  3.5882088199E+00  6.9580159909E+00  8.3290229264E-02  8.0459456269E-02  3.5291812060E-01
  5.3800000000E+03  3.5959138687E+00  6.9545082965E+00  8.3776999123E-02  8.0917045793E-02  3.5339916823E-01
  5.3900000000E+03  3.6036211083E+00  6.9510088793E+00  8.4265701919E-02  8.1376320092E-02  3.5387985505E-01
  5.4000000000E+03  3.6113305353E+00  6.9475177044E+00  8.4756341720E-02  8.1837281573E-02  3.5436018443E-01
  5.4100000000E+03  3.6190421461E+00  6.9440347374E+00  8.5248922596E-02  8.2299932636E-02  3.5484015975E-01
  5.4200000000E+03  3.6267559375E+00  6.9405599437E+00  8.5743448616E-02  8.2764275673E-02  3.5531978436E-01
  5.4300000000E+03  3.6344849411E+00  6.9371307184E+00  8.6239923851E-02  8.3230325293E-02  3.5579906163E-01
  5.4400000000E+03  3.6422178161E+00  6.9337142644E+00  8.6738352373E-02  8.3698073455E-02  3.5627799490E-01
  5.4500000000E+03  3.6499528968E+00  6.9303057629E+00  8.7238738256E-02  8.4167520987E-02  3.5675658751E-01
  5.4600000000E+03  3.6576901797E+00  6.9269051808E+00  8.7741085573E-02  8.4638670256E-02  3.5723484279E-01
  5.4700000000E+03  3.6654296614E+00  6.9235124852E+00  8.8245398399E-02  8.5111523621E-02  3.5771276407E-01
  5.4800000000E+03  3.6731713386E+00  6.9201276434E+00  8.8751680811E-02  8.5586083435E-02  3.5819035467E-01
  5.4900000000E+03  3.6809152078E+00  6.9167506230E+00  8.9259936884E-02  8.6062352044E-02  3.5866761790E-01
  5.5000000000E+03  3.6886612657E+00  6.9133813917E+00  8.9770170698E-02  8.6540331785E-02  3.5914455707E-01
  5.5100000000E+03  3.6964101405E+00  6.9100217814E+00  9.0282386331E-02  8.7020025636E-02  3.5962117547E-01
  5.5200000000E+03  3.7041741365E+00  6.9067079743E+00  9.0796587863E-02  8.7501448618E-02  3.6009747640E-01
  5.5300000000E+03  3.7119403434E+00  6.9034017499E+00  9.1312779374E-02  8.7984589962E-02  3.6057346314E-01
  5.5400000000E+03  3.7197087577E+00  6.9001030772E+00  9.1830964948E-02  8.8469451980E-02  3.6104913898E-01
  5.5500000000E+03  3.7274793762E+00  6.8968119254E+00  9.2351148666E-02  8.8956036976E-02  3.6152450719E-01
  5.5600000000E+03  3.7352521955E+00  6.8935282638E+00  9.2873334612E-02  8.9444347249E-02  3.6199957104E-01
  5.5700000000E+03  3.7430272122E+00  6.8902520619E+00  9.3397526871E-02  8.9934385088E-02  3.6247433380E-01
  5.5800000000E+03  3.7508044230E+00  6.8869832895E+00  9.3923729529E-02  9.0426152775E-02  3.6294879868E-01
  5.5900000000E+03  3.7585838247E+00  6.8837219164E+00  9.4451946673E-02  9.0919652587E-02  3.6342296863E-01
  5.6000000000E+03  3.7663661870E+00  6.8804702674E+00  9.4982182390E-02  9.1414887661E-02  3.6389684638E-01
  5.6100000000E+03  3.7741623941E+00  6.8772613658E+00  9.5514440769E-02  9.1911872642E-02  3.6437043471E-01
  5.6200000000E+03  3.7819608113E+00  6.8740596715E+00  9.6048725899E-02  9.2410596786E-02  3.6484373635E-01
  5.6300000000E+03  3.7897614352E+00  6.8708651558E+00  9.6585041872E-02  9.2911062340E-02  3.6531675404E-01
  5.6400000000E+03  3.7975642625E+00  6.8676777897E+00  9.7123392778E-02  9.3413271546E-02  3.6578949053E-01
  5.6500000000E+03  3.8053692901E+00  6.8644975447E+00  9.7663782710E-02  9.3917226636E-02  3.6626194856E-01
  5.6600000000E+03  3.8131765146E+00  6.8613243922E+00  9.8206215762E-02  9.4422929836E-02  3.6673413086E-01
  5.6700000000E+03  3.8209859327E+00  6.8581583040E+00  9.8750696027E-02  9.4930383364E-02  3.6720604015E-01
  5.6800000000E+03  3.8287975412E+00  6.8549992519E+00  9.9297227602E-02  9.5439589431E-02  3.6767767916E-01
  5.6900000000E+03  3.8366113368E+00  6.8518472079E+00  9.9845814583E-02  9.5950550239E-02  3.6814905062E-01
  5.7000000000E+03  3.8444378304E+00  6.8487353656E+00  1.0039646107E-01  9.6463281193E-02  3.6862015724E-01
  5.7100000000E+03  3.8522673039E+00  6.8456328301E+00  1.0094917115E-01  9.6977772492E-02  3.6909100174E-01
  5.7200000000E+03  3.8600989810E+00  6.8425371251E+00  1.0150394894E-01  9.7494025353E-02  3.6956158684E-01
  5.7300000000E+03  3.8679328584E+00  6.8394482238E+00  1.0206079852E-01  9.8012041951E-02  3.7003191524E-01
  5.7400000000E+03  3.8757689329E+00  6.8363660992E+00  1.0261972401E-01  9.8531824455E-02  3.7050198965E-01
  5.7500000000E+03  3.8836072014E+00  6.8332907249E+00  1.0318072950E-01  9.9053375022E-02  3.7097181278E-01
  5.7600000000E+03  3.8914476605E+00  6.8302220742E+00  1.0374381910E-01  9.9576695807E-02  3.7144138733E-01
  5.7700000000E+03  3.8992903071E+00  6.8271601209E+00  1.0430899691E-01  1.0010178895E-01  3.7191071600E-01
  5.7800000000E+03  3.9071351380E+00  6.8241048388E+00  1.0487626703E-01  1.0062865659E-01  3.7237980149E-01
  5.7900000000E+03  3.9149887558E+00  6.8210781283E+00  1.0544563358E-01  1.0115731009E-01  3.7284864649E-01
  5.8000000000E+03  3.9228481013E+00  6.8180696836E+00  1.0601710065E-01  1.0168774748E-01  3.7331725369E-01
  5.8100000000E+03  3.9307096447E+00  6.8150677449E+00  1.0659067236E-01  1.0221996598E-01  3.7378562579E-01
  5.8200000000E+03  3.9385733829E+00  6.8120722869E+00  1.0716635281E-01  1.0275396770E-01  3.7425376548E-01
  5.8300000000E+03  3.9464393128E+00  6.8090832845E+00  1.0774414611E-01  1.0328975475E-01  3.7472167631E-01
  5.8400000000E+03  3.9543074311E+00  6.8061007128E+00  1.0832405638E-01  1.0382732920E-01  3.7518936205E-01
  5.8500000000E+03  3.9621777347E+00  6.8031245470E+00  1.0890608773E-01  1.0436669315E-01  3.7565682469E-01
  5.8600000000E+03  3.9700502205E+00  6.8001547625E+00  1.0949024426E-01  1.0490784868E-01  3.7612406621E-01
  5.8700000000E+03  3.9779248855E+00  6.7971913345E+00  1.1007653010E-01  1.0545079785E-01  3.7659108858E-01
  5.8800000000E+03  3.9858037072E+00  6.7942412322E+00  1.1066494935E-01  1.0599554582E-01  3.7705789377E-01
  5.8900000000E+03  3.9936917113E+00  6.7913220920E+00  1.1125550613E-01  1.0654210265E-01  3.7752448374E-01
  5.9000000000E+03  4.0015819054E+00  6.7884091548E+00  1.1184820455E-01  1.0709045954E-01  3.7799086048E-01
  5.9100000000E+03  4.0094742864E+00  6.7855023968E+00  1.1244304874E-01  1.0764061850E-01  3.7845702595E-01
  5.9200000000E+03  4.0173688512E+00  6.7826017946E+00  1.1304004281E-01  1.0819258159E-01  3.7892298212E-01
  5.9300000000E+03  4.0252655967E+00  6.7797073246E+00  1.1363919088E-01  1.0874635081E-01  3.7938873096E-01
  5.9400000000E+03  4.0331645199E+00  6.7768189637E+00  1.1424049707E-01  1.0930192819E-01  3.7985427444E-01
  5.9500000000E+03  4.0410656176E+00  6.7739366887E+00  1.1484396551E-01  1.0985931573E-01  3.8031961454E-01
  5.9600000000E+03  4.0489688868E+00  6.7710604766E+00  1.1544960030E-01  1.1041851542E-01  3.8078475323E-01
  5.9700000000E+03  4.0568743244E+00  6.7681903045E+00  1.1605740558E-01  1.1097952926E-01  3.8124969247E-01
  5.9800000000E+03  4.0647869297E+00  6.7653451007E+00  1.1666738546E-01  1.1154236815E-01  3.8171443425E-01
  5.9900000000E+03  4.0727045773E+00  6.7625166868E+00  1.1727954408E-01  1.1210703045E-01  3.8217898052E-01
  6.0000000000E+03  4.0806244016E+00  6.7596941704E+00  1.1789388556E-01  1.1267351307E-01  3.8264333327E-01
  6.0100000000E+03  4.0885463998E+00  6.7568775294E+00  1.1851556318E-01  1.1324651946E-01  3.8310749447E-01
  6.0200000000E+03  4.0964705687E+00  6.7540667418E+00  1.1913947730E-01  1.1382138801E-01  3.8357146609E-01
  6.0300000000E+03  4.1043969054E+00  6.7512617858E+00  1.1976563223E-01  1.1439812075E-01  3.8403525011E-01
  6.0400000000E+03  4.1123254068E+00  6.7484626396E+00  1.2039403228E-01  1.1497671974E-01  3.8449884850E-01
  6.0500000000E+03  4.1202560700E+00  6.7456692816E+00  1.2102468176E-01  1.1555718701E-01  3.8496226324E-01
  6.0600000000E+03  4.1281888919E+00  6.7428816902E+00  1.2165758499E-01  1.1613952459E-01  3.8542549631E-01
  6.0700000000E+03  4.1361238697E+00  6.7400998442E+00  1.2229274627E-01  1.1672373448E-01  3.8588854967E-01
  6.0800000000E+03  4.1440674206E+00  6.7373489831E+00  1.2293016993E-01  1.1730983151E-01  3.8635142532E-01
  6.0900000000E+03  4.1520138925E+00  6.7346067342E+00  1.2356986029E-01  1.1789780662E-01  3.8681412522E-01
  6.1000000000E+03  4.1599625270E+00  6.7318700980E+00  1.2421182166E-01  1.1848766029E-01  3.8727665137E-01
  6.1100000000E+03  4.1679133211E+00  6.7291390537E+00  1.2485605836E-01  1.1907939453E-01  3.8773900573E-01
  6.1200000000E+03  4.1758662720E+00  6.7264135807E+00  1.2550257472E-01  1.1967301130E-01  3.8820119030E-01
  6.1300000000E+03  4.1838213765E+00  6.7236936587E+00  1.2615137505E-01  1.2026851257E-01  3.8866320705E-01
  6.1400000000E+03  4.1917786319E+00  6.7209792673E+00  1.2680246368E-01  1.2086590031E-01  3.8912505797E-01
  6.1500000000E+03  4.1997380352E+00  6.7182703863E+00  1.2745584493E-01  1.2146517645E-01  3.8958674504E-01
  6.1600000000E+03  4.2076995834E+00  6.7155669955E+00  1.2811152313E-01  1.2206634295E-01  3.9004827025E-01
  6.1700000000E+03  4.2156632737E+00  6.7128690750E+00  1.2876950260E-01  1.2266940174E-01  3.9050963559E-01
  6.1800000000E+03  4.2236357817E+00  6.7102033154E+00  1.2942978768E-01  1.2327436944E-01  3.9097084305E-01
  6.1900000000E+03  4.2316104765E+00  6.7075430660E+00  1.3009238268E-01  1.2388123359E-01  3.9143189462E-01
  6.2000000000E+03  4.2395873191E+00  6.7048881628E+00  1.3075729195E-01  1.2448999603E-01  3.9189279229E-01
  6.2100000000E+03  4.2475663067E+00  6.7022385865E+00  1.3142451980E-01  1.2510065866E-01  3.9235353805E-01
  6.2200000000E+03  4.2555474363E+00  6.6995943180E+00  1.3209407058E-01  1.2571322337E-01  3.9281413390E-01
  6.2300000000E+03  4.2635307052E+00  6.6969553380E+00  1.3276594861E-01  1.2632769203E-01  3.9327458183E-01
  6.2400000000E+03  4.2715161105E+00  6.6943216276E+00  1.3344015824E-01  1.2694406653E-01  3.9373488384E-01
  6.2500000000E+03  4.2795036493E+00  6.6916931677E+00  1.3411670378E-01  1.2756234872E-01  3.9419504194E-01
  6.2600000000E+03  4.2874933187E+00  6.6890699396E+00  1.3479558959E-01  1.2818254047E-01  3.9465505813E-01
  6.2700000000E+03  4.2954851160E+00  6.6864519245E+00  1.3547682000E-01  1.2880464361E-01  3.9511493440E-01
  6.2800000000E+03  4.3034848719E+00  6.6838629234E+00  1.3616039934E-01  1.2942867419E-01  3.9557467276E-01
  6.2900000000E+03  4.3114871805E+00  6.6812807449E+00  1.3684633196E-01  1.3005462111E-01  3.9603427520E-01
  6.3000000000E+03  4.3194916216E+00  6.6787036635E+00  1.3753462220E-01  1.3068248516E-01  3.9649374299E-01
  6.3100000000E+03  4.3274981926E+00  6.6761316612E+00  1.3822527440E-01  1.3131226816E-01  3.9695307713E-01
  6.3200000000E+03  4.3355068906E+00  6.6735647198E+00  1.3891829290E-01  1.3194397192E-01  3.9741227881E-01
  6.3300000000E+03  4.3435177127E+00  6.6710028215E+00  1.3961368204E-01  1.3257759824E-01  3.9787134921E-01
  6.3400000000E+03  4.3515306563E+00  6.6684459484E+00  1.4031144618E-01  1.3321314888E-01  3.9833028952E-01
  6.3500000000E+03  4.3595457185E+00  6.6658940828E+00  1.4101158965E-01  1.3385062564E-01  3.9878910093E-01
  6.3600000000E+03  4.3675628966E+00  6.6633472068E+00  1.4171411681E-01  1.3449003027E-01  3.9924778464E-01
  6.3700000000E+03  4.3755821877E+00  6.6608053031E+00  1.4241903200E-01  1.3513136454E-01  3.9970634184E-01
  6.3800000000E+03  4.3836076828E+00  6.6582855103E+00  1.4312633957E-01  1.3577464126E-01  4.0016477372E-01
  6.3900000000E+03  4.3916369867E+00  6.6557776931E+00  1.4383604388E-01  1.3641985588E-01  4.0062308150E-01
  6.4000000000E+03  4.3996684076E+00  6.6532747398E+00  1.4454814926E-01  1.3706700562E-01  4.0108126636E-01
  6.4100000000E+03  4.4077019426E+00  6.6507766334E+00  1.4526266009E-01  1.3771609220E-01  4.0153932952E-01
  6.4200000000E+03  4.4157375890E+00  6.6482833569E+00  1.4597958071E-01  1.3836711733E-01  4.0199727219E-01
  6.4300000000E+03  4.4237753440E+00  6.6457948935E+00  1.4669891547E-01  1.3902008272E-01  4.0245509558E-01
  6.4400000000E+03  4.4318152051E+00  6.6433112264E+00  1.4742066873E-01  1.3967499005E-01  4.0291280089E-01
  6.4500000000E+03  4.4398571693E+00  6.6408323390E+00  1.4814484485E-01  1.4033184102E-01  4.0337038935E-01
  6.4600000000E+03  4.4479012341E+00  6.6383582147E+00  1.4887144818E-01  1.4099063730E-01  4.0382786218E-01
  6.4700000000E+03  4.4559473967E+00  6.6358888370E+00  1.4960048309E-01  1.4165138056E-01  4.0428522060E-01
  6.4800000000E+03  4.4639973309E+00  6.6334314464E+00  1.5033195394E-01  1.4231407750E-01  4.0474246582E-01
  6.4900000000E+03  4.4720530031E+00  6.6309944840E+00  1.5106586508E-01  1.4297873585E-01  4.0519959909E-01
  6.5000000000E+03  4.4801107760E+00  6.6285621670E+00  1.5180222088E-01  1.4364534638E-01  4.0565662163E-01
  6.5100000000E+03  4.4881706469E+00  6.6261344792E+00  1.5254102570E-01  1.4431391073E-01  4.0611353466E-01
  6.5200000000E+03  4.4962326131E+00  6.6237114048E+00  1.5328228391E-01  1.4498443052E-01  4.0657033943E-01
  6.5300000000E+03  4.5042966721E+00  6.6212929280E+00  1.5402599987E-01  1.4565690737E-01  4.0702703718E-01
  6.5400000000E+03  4.5123628210E+00  6.6188790331E+00  1.5477217795E-01  1.4633134287E-01  4.0748362914E-01
  6.5500000000E+03  4.5204310573E+00  6.6164697043E+00  1.5552082252E-01  1.4700773863E-01  4.0794011656E-01
  6.5600000000E+03  4.5285013783E+00  6.6140649260E+00  1.5627193793E-01  1.4768609622E-01  4.0839650069E-01
  6.5700000000E+03  4.5365737813E+00  6.6116646828E+00  1.5702552858E-01  1.4836641722E-01  4.0885278276E-01
  6.5800000000E+03  4.5446482638E+00  6.6092689593E+00  1.5778159882E-01  1.4904870319E-01  4.0930896405E-01
  6.5900000000E+03  4.5527284764E+00  6.6068941621E+00  1.5854015302E-01  1.4973296808E-01  4.0976504579E-01
  6.6000000000E+03  4.5608119656E+00  6.6045291773E+00  1.5930119556E-01  1.5041920532E-01  4.1022102925E-01
  6.6100000000E+03  4.5688975361E+00  6.6021686177E+00  1.6006473082E-01  1.5110741245E-01  4.1067691569E-01
  6.6200000000E+03  4.5769851855E+00  6.5998124684E+00  1.6083076316E-01  1.5179759098E-01  4.1113270637E-01
  6.6300000000E+03  4.5850749111E+00  6.5974607145E+00  1.6159929697E-01  1.5248974244E-01  4.1158840255E-01
  6.6400000000E+03  4.5931667102E+00  6.5951133412E+00  1.6237033662E-01  1.5318386834E-01  4.1204400551E-01
  6.6500000000E+03  4.6012605804E+00  6.5927703338E+00  1.6314388649E-01  1.5387997017E-01  4.1249951652E-01
  6.6600000000E+03  4.6093565189E+00  6.5904316775E+00  1.6391995096E-01  1.5457804943E-01  4.1295493685E-01
  6.6700000000E+03  4.6174545233E+00  6.5880973578E+00  1.6469853441E-01  1.5527810760E-01  4.1341026778E-01
  6.6800000000E+03  4.6255545910E+00  6.5857673602E+00  1.6547964121E-01  1.5598014615E-01  4.1386551059E-01
  6.6900000000E+03  4.6336568058E+00  6.5834420783E+00  1.6626327576E-01  1.5668416686E-01  4.1432066657E-01
  6.7000000000E+03  4.6417653679E+00  6.5811412965E+00  1.6704944243E-01  1.5739018736E-01  4.1477573699E-01
  6.7100000000E+03  4.6498759943E+00  6.5788447485E+00  1.6783814562E-01  1.5809819286E-01  4.1523072316E-01
  6.7200000000E+03  4.6579886824E+00  6.5765524201E+00  1.6862938969E-01  1.5880818478E-01  4.1568562636E-01
  6.7300000000E+03  4.6661034299E+00  6.5742642973E+00  1.6942317905E-01  1.5952016457E-01  4.1614044763E-01
  6.7400000000E+03  4.6742202340E+00  6.5719803662E+00  1.7021951808E-01  1.6023413363E-01  4.1659518740E-01
  6.7500000000E+03  4.6823390923E+00  6.5697006129E+00  1.7101841117E-01  1.6095009336E-01  4.1704984628E-01
  6.7600000000E+03  4.6904600023E+00  6.5674250236E+00  1.7181986270E-01  1.6166804516E-01  4.1750442491E-01
  6.7700000000E+03  4.6985829614E+00  6.5651535845E+00  1.7262387707E-01  1.6238799042E-01  4.1795892396E-01
  6.7800000000E+03  4.7067079671E+00  6.5628862820E+00  1.7343045866E-01  1.6310993050E-01  4.1841334406E-01
  6.7900000000E+03  4.7148350170E+00  6.5606231024E+00  1.7423961188E-01  1.6383386678E-01  4.1886768588E-01
  6.8000000000E+03  4.7229645401E+00  6.5583661932E+00  1.7505134111E-01  1.6455980248E-01  4.1932195006E-01
  6.8100000000E+03  4.7310995715E+00  6.5561307021E+00  1.7586565076E-01  1.6528775236E-01  4.1977613727E-01
  6.8200000000E+03  4.7392366471E+00  6.5538992516E+00  1.7668254520E-01  1.6601770273E-01  4.2023024817E-01
  6.8300000000E+03  4.7473757647E+00  6.5516718284E+00  1.7750202885E-01  1.6674965492E-01  4.2068428343E-01
  6.8400000000E+03  4.7555169215E+00  6.5494484195E+00  1.7832410610E-01  1.6748361026E-01  4.2113824371E-01
  6.8500000000E+03  4.7636601153E+00  6.5472290116E+00  1.7914878135E-01  1.6821957004E-01  4.2159212970E-01
  6.8600000000E+03  4.7718053435E+00  6.5450135919E+00  1.7997605899E-01  1.6895753556E-01  4.2204594206E-01
  6.8700000000E+03  4.7799526037E+00  6.5428021472E+00  1.8080594343E-01  1.6969750812E-01  4.2249968148E-01
  6.8800000000E+03  4.7881018934E+00  6.5405946648E+00  1.8163843908E-01  1.7043948898E-01  4.2295334864E-01
  6.8900000000E+03  4.7962532101E+00  6.5383911318E+00  1.8247355032E-01  1.7118347942E-01  4.2340694421E-01
  6.9000000000E+03  4.8044065515E+00  6.5361915354E+00  1.8331128157E-01  1.7192948069E-01  4.2386046891E-01
  6.9100000000E+03  4.8125619969E+00  6.5339963033E+00  1.8415163724E-01  1.7267749445E-01  4.2431392341E-01
  6.9200000000E+03  4.8207228031E+00  6.5318229386E+00  1.8499462172E-01  1.7342753851E-01  4.2476730840E-01
  6.9300000000E+03  4.8288856334E+00  6.5296534337E+00  1.8584023942E-01  1.7417959738E-01  4.2522062460E-01
  6.9400000000E+03  4.8370504853E+00  6.5274877761E+00  1.8668849476E-01  1.7493367228E-01  4.2567387270E-01
  6.9500000000E+03  4.8452173563E+00  6.5253259536E+00  1.8753939213E-01  1.7568976441E-01  4.2612705340E-01
  6.9600000000E+03  4.8533862440E+00  6.5231679538E+00  1.8839293596E-01  1.7644787498E-01  4.2658016741E-01
  6.9700000000E+03  4.8615571462E+00  6.5210137645E+00  1.8924913065E-01  1.7720800516E-01  4.2703321545E-01
  6.9800000000E+03  4.8697300602E+00  6.5188633735E+00  1.9010798061E-01  1.7797015615E-01  4.2748619823E-01
  6.9900000000E+03  4.8779049839E+00  6.5167167687E+00  1.9096949026E-01  1.7873432910E-01  4.2793911646E-01
  7.0000000000E+03  4.8860819147E+00  6.5145739380E+00  1.9183366401E-01  1.7950052518E-01  4.2839197087E-01
  7.0100000000E+03  4.8942608503E+00  6.5124348694E+00  1.9270419386E-01  1.8027197266E-01  4.2884476218E-01
  7.0200000000E+03  4.9024417884E+00  6.5102995509E+00  1.9357742472E-01  1.8104546701E-01  4.2929749111E-01
  7.0300000000E+03  4.9106271067E+00  6.5081811855E+00  1.9445336109E-01  1.8182102298E-01  4.2975015841E-01
  7.0400000000E+03  4.9188151952E+00  6.5060707741E+00  1.9533200749E-01  1.8259863277E-01  4.3020276479E-01
  7.0500000000E+03  4.9270052851E+00  6.5039640413E+00  1.9621336844E-01  1.8337829318E-01  4.3065531100E-01
  7.0600000000E+03  4.9351973740E+00  6.5018609753E+00  1.9709744845E-01  1.8416000536E-01  4.3110779778E-01
  7.0700000000E+03  4.9433914596E+00  6.4997615646E+00  1.9798425206E-01  1.8494377042E-01  4.3156022586E-01
  7.0800000000E+03  4.9515875396E+00  6.4976657977E+00  1.9887378376E-01  1.8572958949E-01  4.3201259600E-01
  7.0900000000E+03  4.9597856115E+00  6.4955736633E+00  1.9976604810E-01  1.8651746368E-01  4.3246490895E-01
  7.1000000000E+03  4.9679856732E+00  6.4934851497E+00  2.0066104958E-01  1.8730739408E-01  4.3291716545E-01
  7.1100000000E+03  4.9761877222E+00  6.4914002458E+00  2.0155879274E-01  1.8809938178E-01  4.3336936626E-01
  7.1200000000E+03  4.9843917562E+00  6.4893189401E+00  2.0245928210E-01  1.8889342784E-01  4.3382151214E-01
  7.1300000000E+03  4.9925977730E+00  6.4872412215E+00  2.0336252218E-01  1.8968953335E-01  4.3427360385E-01
  7.1400000000E+03  5.0008067858E+00  6.4851722191E+00  2.0426851751E-01  1.9048770525E-01  4.3472564182E-01
  7.1500000000E+03  5.0090200966E+00  6.4831184812E+00  2.0517727262E-01  1.9128795235E-01  4.3517762617E-01
  7.1600000000E+03  5.0172353896E+00  6.4810682628E+00  2.0608879205E-01  1.9209026231E-01  4.3562955715E-01
  7.1700000000E+03  5.0254526623E+00  6.4790215527E+00  2.0700308031E-01  1.9289463616E-01  4.3608143503E-01
  7.1800000000E+03  5.0336719127E+00  6.4769783402E+00  2.0792014194E-01  1.9370107490E-01  4.3653326007E-01
  7.1900000000E+03  5.0418931382E+00  6.4749386144E+00  2.0883998147E-01  1.9450957954E-01  4.3698503255E-01
  7.2000000000E+03  5.0501163368E+00  6.4729023646E+00  2.0976260344E-01  1.9532015108E-01  4.3743675272E-01
  7.2100000000E+03  5.0583415061E+00  6.4708695799E+00  2.1068801238E-01  1.9613279048E-01  4.3788842088E-01
  7.2200000000E+03  5.0665686438E+00  6.4688402498E+00  2.1161621282E-01  1.9694749874E-01  4.3834003729E-01
  7.2300000000E+03  5.0747977478E+00  6.4668143635E+00  2.1254720931E-01  1.9776427679E-01  4.3879160224E-01
  7.2400000000E+03  5.0830288157E+00  6.4647919105E+00  2.1348100638E-01  1.9858312560E-01  4.3924311602E-01
  7.2500000000E+03  5.0912618453E+00  6.4627728802E+00  2.1441760857E-01  1.9940404610E-01  4.3969457891E-01
  7.2600000000E+03  5.0994992225E+00  6.4607681240E+00  2.1535702042E-01  2.0022705333E-01  4.4014599120E-01
  7.2700000000E+03  5.1077397563E+00  6.4587721727E+00  2.1629924647E-01  2.0105214141E-01  4.4059735319E-01
  7.2800000000E+03  5.1159822518E+00  6.4567795804E+00  2.1724429126E-01  2.0187930424E-01  4.4104866517E-01
  7.2900000000E+03  5.1242267066E+00  6.4547903367E+00  2.1819215934E-01  2.0270854273E-01  4.4149992745E-01
  7.3000000000E+03  5.1324731187E+00  6.4528044316E+00  2.1914285525E-01  2.0353985775E-01  4.4195114033E-01
  7.3100000000E+03  5.1407214857E+00  6.4508218547E+00  2.2009638353E-01  2.0437325019E-01  4.4240230412E-01
  7.3200000000E+03  5.1489718055E+00  6.4488425959E+00  2.2105274874E-01  2.0520872090E-01  4.4285341912E-01
  7.3300000000E+03  5.1572240759E+00  6.4468666453E+00  2.2201195542E-01  2.0604627074E-01  4.4330448565E-01
  7.3400000000E+03  5.1654782946E+00  6.4448939928E+00  2.2297400811E-01  2.0688590055E-01  4.4375550402E-01
  7.3500000000E+03  5.1737344594E+00  6.4429246283E+00  2.2393891137E-01  2.0772761117E-01  4.4420647456E-01
  7.3600000000E+03  5.1819925682E+00  6.4409585419E+00  2.2490666975E-01  2.0857140342E-01  4.4465739758E-01
  7.3700000000E+03  5.1902526188E+00  6.4389957239E+00  2.2587728780E-01  2.0941727810E-01  4.4510827341E-01
  7.3800000000E+03  5.1985178243E+00  6.4370493675E+00  2.2685077008E-01  2.1026525536E-01  4.4555910238E-01
  7.3900000000E+03  5.2067855919E+00  6.4351087695E+00  2.2782712113E-01  2.1111532067E-01  4.4600988481E-01
  7.4000000000E+03  5.2150553016E+00  6.4331713796E+00  2.2880634551E-01  2.1196747111E-01  4.4646062105E-01
  7.4100000000E+03  5.2233269515E+00  6.4312371881E+00  2.2978844778E-01  2.1282170746E-01  4.4691131143E-01
  7.4200000000E+03  5.2316005392E+00  6.4293061854E+00  2.3077343249E-01  2.1367803046E-01  4.4736195628E-01
  7.4300000000E+03  5.2398760627E+00  6.4273783620E+00  2.3176130421E-01  2.1453644087E-01  4.4781255596E-01
  7.4400000000E+03  5.2481535198E+00  6.4254537084E+00  2.3275206748E-01  2.1539693942E-01  4.4826311081E-01
  7.4500000000E+03  5.2564329084E+00  6.4235322151E+00  2.3374572688E-01  2.1625952683E-01  4.4871362117E-01
  7.4600000000E+03  5.2647142263E+00  6.4216138728E+00  2.3474228696E-01  2.1712420383E-01  4.4916408740E-01
  7.4700000000E+03  5.2729974713E+00  6.4196986720E+00  2.3574175229E-01  2.1799097110E-01  4.4961450985E-01
  7.4800000000E+03  5.2812826413E+00  6.4177866034E+00  2.3674412743E-01  2.1885982935E-01  4.5006488889E-01
  7.4900000000E+03  5.2895697343E+00  6.4158776576E+00  2.3774941694E-01  2.1973077924E-01  4.5051522486E-01
  7.5000000000E+03  5.2978620901E+00  6.4139842664E+00  2.3875762539E-01  2.2060384197E-01  4.5096551814E-01
  7.5100000000E+03  5.3061571149E+00  6.4120967216E+00  2.3976875734E-01  2.2147900256E-01  4.5141576909E-01
  7.5200000000E+03  5.3144540637E+00  6.4102122430E+00  2.4078281737E-01  2.2235625713E-01  4.5186597804E-01
  7.5300000000E+03  5.3227529342E+00  6.4083308213E+00  2.4179981003E-01  2.2323560632E-01  4.5231614493E-01
  7.5400000000E+03  5.3310537244E+00  6.4064524477E+00  2.4281973991E-01  2.2411705075E-01  4.5276626970E-01
  7.5500000000E+03  5.3393564322E+00  6.4045771132E+00  2.4384261157E-01  2.2500059105E-01  4.5321635234E-01
  7.5600000000E+03  5.3476610554E+00  6.4027048087E+00  2.4486842958E-01  2.2588622780E-01  4.5366639284E-01
  7.5700000000E+03  5.3559675920E+00  6.4008355255E+00  2.4589719852E-01  2.2677396162E-01  4.5411639118E-01
  7.5800000000E+03  5.3642760399E+00  6.3989692546E+00  2.4692892296E-01  2.2766379308E-01  4.5456634737E-01
  7.5900000000E+03  5.3725863970E+00  6.3971059873E+00  2.4796360747E-01  2.2855572275E-01  4.5501626141E-01
  7.6000000000E+03  5.3808986613E+00  6.3952457147E+00  2.4900125663E-01  2.2944975119E-01  4.5546613329E-01
  7.6100000000E+03  5.3892128306E+00  6.3933884282E+00  2.5004187502E-01  2.3034587895E-01  4.5591596301E-01
  7.6200000000E+03  5.3975315110E+00  6.3915429529E+00  2.5108546721E-01  2.3124412292E-01  4.5636575060E-01
  7.6300000000E+03  5.4058538290E+00  6.3897062856E+00  2.5213203779E-01  2.3214447843E-01  4.5681549604E-01
  7.6400000000E+03  5.4141780536E+00  6.3878725506E+00  2.5318159133E-01  2.3304693520E-01  4.5726519937E-01
  7.6500000000E+03  5.4225041827E+00  6.3860417395E+00  2.5423413242E-01  2.3395149376E-01  4.5771486059E-01
  7.6600000000E+03  5.4308322142E+00  6.3842138437E+00  2.5528966563E-01  2.3485815460E-01  4.5816447971E-01
  7.6700000000E+03  5.4391621460E+00  6.3823888548E+00  2.5634819555E-01  2.3576691819E-01  4.5861405677E-01
  7.6800000000E+03  5.4474939762E+00  6.3805667645E+00  2.5740972677E-01  2.3667778502E-01  4.5906359179E-01
  7.6900000000E+03  5.4558277027E+00  6.3787475642E+00  2.5847426387E-01  2.3759075555E-01  4.5951308478E-01
  7.7000000000E+03  5.4641633235E+00  6.3769312458E+00  2.5954181143E-01  2.3850583021E-01  4.5996253579E-01
