#[MATERIAL DEFINITION FOR MC-GPU: interaction mean free path and sampling data from PENELOPE 2006]
#[MATERIAL NAME]
# POLYCARBONATE (MAKROLON, LEXAN)  (220)                        
#[NOMINAL DENSITY (g/cm^3)]
#   1.20000000
#[NUMBER OF DATA VALUES]
#  12000
#[MEAN FREE PATHS (cm) (ie, average distance between interactions)]
#[Energy (eV)     | Rayleigh        | Compton         | Photoelectric   | TOTAL (+pair prod) (cm) | Rayleigh: max cumul prob F^2]
  5.0000000000E+03  2.1122994258E+00  7.3678529346E+00  3.6244386631E-02  3.5461468486E-02  3.3567133659E-01
  5.0100000000E+03  2.1171050505E+00  7.3595356603E+00  3.6469048157E-02  3.5677672769E-02  3.3617506610E-01
  5.0200000000E+03  2.1219119931E+00  7.3512443318E+00  3.6694649746E-02  3.5894741713E-02  3.3667807098E-01
  5.0300000000E+03  2.1267202513E+00  7.3429788166E+00  3.6921193444E-02  3.6112676831E-02  3.3718035623E-01
  5.0400000000E+03  2.1315298230E+00  7.3347389835E+00  3.7148681300E-02  3.6331479635E-02  3.3768192663E-01
  5.0500000000E+03  2.1363407058E+00  7.3265247018E+00  3.7377115359E-02  3.6551151633E-02  3.3818278696E-01
  5.0600000000E+03  2.1411528975E+00  7.3183358420E+00  3.7606497672E-02  3.6771694331E-02  3.3868294193E-01
  5.0700000000E+03  2.1459663959E+00  7.3101722753E+00  3.7836830285E-02  3.6993109233E-02  3.3918239625E-01
  5.0800000000E+03  2.1507811987E+00  7.3020338740E+00  3.8068115247E-02  3.7215397840E-02  3.3968115459E-01
  5.0900000000E+03  2.1556143247E+00  7.2940369222E+00  3.8300354609E-02  3.7438569853E-02  3.4017922160E-01
  5.1000000000E+03  2.1604517624E+00  7.2860846362E+00  3.8533550418E-02  3.7662620173E-02  3.4067660189E-01
  5.1100000000E+03  2.1652905480E+00  7.2781565721E+00  3.8767704726E-02  3.7887548881E-02  3.4117330006E-01
  5.1200000000E+03  2.1701306793E+00  7.2702526089E+00  3.9002819581E-02  3.8113357472E-02  3.4166932068E-01
  5.1300000000E+03  2.1749721541E+00  7.2623726266E+00  3.9238897035E-02  3.8340047435E-02  3.4216466829E-01
  5.1400000000E+03  2.1798149701E+00  7.2545165059E+00  3.9475939138E-02  3.8567620261E-02  3.4265934740E-01
  5.1500000000E+03  2.1846591250E+00  7.2466841283E+00  3.9713947943E-02  3.8796077434E-02  3.4315336250E-01
  5.1600000000E+03  2.1895046167E+00  7.2388753761E+00  3.9952925499E-02  3.9025420437E-02  3.4364671806E-01
  5.1700000000E+03  2.1943622702E+00  7.2311642386E+00  4.0192873860E-02  3.9255656401E-02  3.4413941852E-01
  5.1800000000E+03  2.1992296184E+00  7.2235330576E+00  4.0433795077E-02  3.9486785653E-02  3.4463146829E-01
  5.1900000000E+03  2.2040983443E+00  7.2159246245E+00  4.0675691203E-02  3.9718805370E-02  3.4512287178E-01
  5.2000000000E+03  2.2089684457E+00  7.2083388278E+00  4.0918564291E-02  3.9951717027E-02  3.4561363333E-01
  5.2100000000E+03  2.2138399203E+00  7.2007755568E+00  4.1162416395E-02  4.0185522097E-02  3.4610375732E-01
  5.2200000000E+03  2.2187127659E+00  7.1932347016E+00  4.1407249568E-02  4.0420222050E-02  3.4659324804E-01
  5.2300000000E+03  2.2235869803E+00  7.1857161530E+00  4.1653065863E-02  4.0655818354E-02  3.4708210981E-01
  5.2400000000E+03  2.2284625611E+00  7.1782198026E+00  4.1899867337E-02  4.0892312474E-02  3.4757034690E-01
  5.2500000000E+03  2.2333421412E+00  7.1707636318E+00  4.2147656042E-02  4.1129707361E-02  3.4805796356E-01
  5.2600000000E+03  2.2382387880E+00  7.1634367931E+00  4.2396434035E-02  4.1368011960E-02  3.4854496404E-01
  5.2700000000E+03  2.2431368398E+00  7.1561313355E+00  4.2646203371E-02  4.1607218957E-02  3.4903135253E-01
  5.2800000000E+03  2.2480362944E+00  7.1488471562E+00  4.2896966105E-02  4.1847329810E-02  3.4951713324E-01
  5.2900000000E+03  2.2529371495E+00  7.1415841532E+00  4.3148724293E-02  4.2088345972E-02  3.5000231032E-01
  5.3000000000E+03  2.2578394029E+00  7.1343422251E+00  4.3401479993E-02  4.2330268896E-02  3.5048688794E-01
  5.3100000000E+03  2.2627430523E+00  7.1271212710E+00  4.3655235260E-02  4.2573100029E-02  3.5097087020E-01
  5.3200000000E+03  2.2676480955E+00  7.1199211909E+00  4.3909992152E-02  4.2816840818E-02  3.5145426123E-01
  5.3300000000E+03  2.2725545303E+00  7.1127418854E+00  4.4165752727E-02  4.3061492707E-02  3.5193706511E-01
  5.3400000000E+03  2.2774725891E+00  7.1056536752E+00  4.4422519042E-02  4.3307063453E-02  3.5241928590E-01
  5.3500000000E+03  2.2823993262E+00  7.0986356070E+00  4.4680293155E-02  4.3553552820E-02  3.5290092766E-01
  5.3600000000E+03  2.2873274908E+00  7.0916375566E+00  4.4939077125E-02  4.3800957811E-02  3.5338199441E-01
  5.3700000000E+03  2.2922570809E+00  7.0846594298E+00  4.5198873011E-02  4.4049279861E-02  3.5386249017E-01
  5.3800000000E+03  2.2971880941E+00  7.0777011327E+00  4.5459682872E-02  4.4298520401E-02  3.5434241891E-01
  5.3900000000E+03  2.3021205282E+00  7.0707625725E+00  4.5721508767E-02  4.4548680862E-02  3.5482178463E-01
  5.4000000000E+03  2.3070543810E+00  7.0638436567E+00  4.5984352757E-02  4.4799762671E-02  3.5530059126E-01
  5.4100000000E+03  2.3119896503E+00  7.0569442934E+00  4.6248216901E-02  4.5051767251E-02  3.5577884274E-01
  5.4200000000E+03  2.3169263338E+00  7.0500643913E+00  4.6513103260E-02  4.5304696023E-02  3.5625654301E-01
  5.4300000000E+03  2.3218792057E+00  7.0433060388E+00  4.6779013895E-02  4.5558560372E-02  3.5673369594E-01
  5.4400000000E+03  2.3268354122E+00  7.0365796037E+00  4.7045950867E-02  4.5813353220E-02  3.5721030543E-01
  5.4500000000E+03  2.3317930665E+00  7.0298719282E+00  4.7313916238E-02  4.6069074725E-02  3.5768637535E-01
  5.4600000000E+03  2.3367521665E+00  7.0231829257E+00  4.7582912069E-02  4.6325726298E-02  3.5816190954E-01
  5.4700000000E+03  2.3417127099E+00  7.0165125101E+00  4.7852940423E-02  4.6583309349E-02  3.5863691183E-01
  5.4800000000E+03  2.3466746946E+00  7.0098605960E+00  4.8124234640E-02  4.6842044403E-02  3.5911138604E-01
  5.4900000000E+03  2.3516381182E+00  7.0032270983E+00  4.8397174333E-02  4.7102290333E-02  3.5958533598E-01
  5.5000000000E+03  2.3566029787E+00  6.9966119327E+00  4.8671160858E-02  4.7363479276E-02  3.6005876590E-01
  5.5100000000E+03  2.3615700104E+00  6.9900201660E+00  4.8946196314E-02  4.7625613197E-02  3.6053167965E-01
  5.5200000000E+03  2.3665535662E+00  6.9835517307E+00  4.9222282800E-02  4.7888704117E-02  3.6100408073E-01
  5.5300000000E+03  2.3715385901E+00  6.9771009726E+00  4.9499422417E-02  4.8152742540E-02  3.6147597263E-01
  5.5400000000E+03  2.3765250799E+00  6.9706678114E+00  4.9777617265E-02  4.8417729884E-02  3.6194735883E-01
  5.5500000000E+03  2.3815130333E+00  6.9642521675E+00  5.0056869445E-02  4.8683667567E-02  3.6241824279E-01
  5.5600000000E+03  2.3865024481E+00  6.9578539618E+00  5.0337181059E-02  4.8950557003E-02  3.6288862795E-01
  5.5700000000E+03  2.3914933222E+00  6.9514731157E+00  5.0618554209E-02  4.9218399604E-02  3.6335851775E-01
  5.5800000000E+03  2.3964856534E+00  6.9451095511E+00  5.0900990996E-02  4.9487196776E-02  3.6382791560E-01
  5.5900000000E+03  2.4014794394E+00  6.9387631902E+00  5.1184493523E-02  4.9756949927E-02  3.6429682490E-01
  5.6000000000E+03  2.4064756101E+00  6.9324405456E+00  5.1469063892E-02  5.0027661203E-02  3.6476524904E-01
  5.6100000000E+03  2.4114872858E+00  6.9262339921E+00  5.1754704208E-02  5.0299342612E-02  3.6523319138E-01
  5.6200000000E+03  2.4165004453E+00  6.9200440340E+00  5.2041416572E-02  5.0571984421E-02  3.6570065530E-01
  5.6300000000E+03  2.4215150864E+00  6.9138705974E+00  5.2329203091E-02  5.0845588026E-02  3.6616764413E-01
  5.6400000000E+03  2.4265312069E+00  6.9077136092E+00  5.2618065867E-02  5.1120154821E-02  3.6663416120E-01
  5.6500000000E+03  2.4315488047E+00  6.9015729963E+00  5.2908007005E-02  5.1395686196E-02  3.6710020984E-01
  5.6600000000E+03  2.4365678775E+00  6.8954486864E+00  5.3199028611E-02  5.1672183537E-02  3.6756579334E-01
  5.6700000000E+03  2.4415884232E+00  6.8893406074E+00  5.3491132790E-02  5.1949648231E-02  3.6803091501E-01
  5.6800000000E+03  2.4466104396E+00  6.8832486880E+00  5.3784321647E-02  5.2228081657E-02  3.6849557811E-01
  5.6900000000E+03  2.4516339245E+00  6.8771728569E+00  5.4078597290E-02  5.2507485195E-02  3.6895978591E-01
  5.7000000000E+03  2.4566720435E+00  6.8712072669E+00  5.4373961824E-02  5.2787871859E-02  3.6942354167E-01
  5.7100000000E+03  2.4617126282E+00  6.8652642200E+00  5.4670417356E-02  5.3069232461E-02  3.6988684863E-01
  5.7200000000E+03  2.4667547081E+00  6.8593366989E+00  5.4967965995E-02  5.3351567521E-02  3.7034971001E-01
  5.7300000000E+03  2.4717982809E+00  6.8534246361E+00  5.5266609846E-02  5.3634878410E-02  3.7081212904E-01
  5.7400000000E+03  2.4768433446E+00  6.8475279643E+00  5.5566351019E-02  5.3919166493E-02  3.7127410891E-01
  5.7500000000E+03  2.4818898970E+00  6.8416466167E+00  5.5867191621E-02  5.4204433132E-02  3.7173565283E-01
  5.7600000000E+03  2.4869379359E+00  6.8357805270E+00  5.6169133762E-02  5.4490679687E-02  3.7219676397E-01
  5.7700000000E+03  2.4919874592E+00  6.8299296293E+00  5.6472179551E-02  5.4777907516E-02  3.7265744549E-01
  5.7800000000E+03  2.4970384648E+00  6.8240938579E+00  5.6776331096E-02  5.5066117971E-02  3.7311770058E-01
  5.7900000000E+03  2.5020996068E+00  6.8183362755E+00  5.7081590509E-02  5.5355320801E-02  3.7357753236E-01
  5.8000000000E+03  2.5071668788E+00  6.8126271567E+00  5.7387959899E-02  5.5645513637E-02  3.7403694397E-01
  5.8100000000E+03  2.5122356574E+00  6.8069326408E+00  5.7695441376E-02  5.5936693376E-02  3.7449593855E-01
  5.8200000000E+03  2.5173059405E+00  6.8012526653E+00  5.8004037052E-02  5.6228861363E-02  3.7495451920E-01
  5.8300000000E+03  2.5223777259E+00  6.7955871683E+00  5.8313749038E-02  5.6522018939E-02  3.7541268904E-01
  5.8400000000E+03  2.5274510116E+00  6.7899360880E+00  5.8624579445E-02  5.6816167442E-02  3.7587045115E-01
  5.8500000000E+03  2.5325257952E+00  6.7842993633E+00  5.8936530387E-02  5.7111308205E-02  3.7632780863E-01
  5.8600000000E+03  2.5376020749E+00  6.7786769332E+00  5.9249603974E-02  5.7407442560E-02  3.7678476454E-01
  5.8700000000E+03  2.5426798483E+00  6.7730687371E+00  5.9563802319E-02  5.7704571835E-02  3.7724132195E-01
  5.8800000000E+03  2.5477618544E+00  6.7674951793E+00  5.9879127537E-02  5.8002700280E-02  3.7769748391E-01
  5.8900000000E+03  2.5528550497E+00  6.7620078370E+00  6.0195581740E-02  5.8301836765E-02  3.7815325348E-01
  5.9000000000E+03  2.5579497610E+00  6.7565342412E+00  6.0513167042E-02  5.8601972375E-02  3.7860863368E-01
  5.9100000000E+03  2.5630459862E+00  6.7510743344E+00  6.0831885557E-02  5.8903108427E-02  3.7906362754E-01
  5.9200000000E+03  2.5681437231E+00  6.7456280590E+00  6.1151739399E-02  5.9205246238E-02  3.7951823808E-01
  5.9300000000E+03  2.5732429696E+00  6.7401953582E+00  6.1472730685E-02  5.9508387119E-02  3.7997246831E-01
  5.9400000000E+03  2.5783437237E+00  6.7347761754E+00  6.1794861528E-02  5.9812532377E-02  3.8042632123E-01
  5.9500000000E+03  2.5834459832E+00  6.7293704542E+00  6.2118134045E-02  6.0117683320E-02  3.8087979949E-01
  5.9600000000E+03  2.5885497461E+00  6.7239781386E+00  6.2442550351E-02  6.0423841249E-02  3.8133290563E-01
  5.9700000000E+03  2.5936550102E+00  6.7185991730E+00  6.2768112563E-02  6.0731007463E-02  3.8178564222E-01
  5.9800000000E+03  2.5987691450E+00  6.7132898742E+00  6.3094822797E-02  6.1039191984E-02  3.8223801176E-01
  5.9900000000E+03  2.6038890213E+00  6.7080258734E+00  6.3422683171E-02  6.1348392577E-02  3.8269001681E-01
  6.0000000000E+03  2.6090104189E+00  6.7027747706E+00  6.3751695801E-02  6.1658605576E-02  3.8314165986E-01
  6.0100000000E+03  2.6141333356E+00  6.6975365126E+00  6.4084083749E-02  6.1971909227E-02  3.8359294344E-01
  6.0200000000E+03  2.6192577695E+00  6.6923110468E+00  6.4417647425E-02  6.2286244750E-02  3.8404387004E-01
  6.0300000000E+03  2.6243837184E+00  6.6870983209E+00  6.4752389023E-02  6.2601613479E-02  3.8449444218E-01
  6.0400000000E+03  2.6295111802E+00  6.6818982825E+00  6.5088310736E-02  6.2918016745E-02  3.8494466233E-01
  6.0500000000E+03  2.6346401530E+00  6.6767108801E+00  6.5425414759E-02  6.3235455876E-02  3.8539453298E-01
  6.0600000000E+03  2.6397706346E+00  6.6715360620E+00  6.5763703288E-02  6.3553932195E-02  3.8584405661E-01
  6.0700000000E+03  2.6449026230E+00  6.6663737770E+00  6.6103178516E-02  6.3873447025E-02  3.8629323568E-01
  6.0800000000E+03  2.6500459371E+00  6.6612998068E+00  6.6443842641E-02  6.4194014487E-02  3.8674207267E-01
  6.0900000000E+03  2.6551919339E+00  6.6562469452E+00  6.6785697858E-02  6.4515624838E-02  3.8719057003E-01
  6.1000000000E+03  2.6603394559E+00  6.6512061971E+00  6.7128746364E-02  6.4838277894E-02  3.8763873020E-01
  6.1100000000E+03  2.6654885011E+00  6.6461775137E+00  6.7472990355E-02  6.5161974966E-02  3.8808655565E-01
  6.1200000000E+03  2.6706390673E+00  6.6411608466E+00  6.7818432030E-02  6.5486717362E-02  3.8853404879E-01
  6.1300000000E+03  2.6757911526E+00  6.6361561473E+00  6.8165073586E-02  6.5812506383E-02  3.8898121207E-01
  6.1400000000E+03  2.6809447549E+00  6.6311633679E+00  6.8512917222E-02  6.6139343331E-02  3.8942804790E-01
  6.1500000000E+03  2.6860998723E+00  6.6261824607E+00  6.8861965136E-02  6.6467229501E-02  3.8987455872E-01
  6.1600000000E+03  2.6912565026E+00  6.6212133781E+00  6.9212219527E-02  6.6796166186E-02  3.9032074694E-01
  6.1700000000E+03  2.6964146439E+00  6.6162560731E+00  6.9563682596E-02  6.7126154677E-02  3.9076661496E-01
  6.1800000000E+03  2.7015847136E+00  6.6113910976E+00  6.9916356541E-02  6.7457211146E-02  3.9121216518E-01
  6.1900000000E+03  2.7067563696E+00  6.6065379908E+00  7.0270243564E-02  6.7789322327E-02  3.9165740001E-01
  6.2000000000E+03  2.7119295537E+00  6.6016962718E+00  7.0625345866E-02  6.8122489423E-02  3.9210232183E-01
  6.2100000000E+03  2.7171042637E+00  6.5968658955E+00  7.0981665648E-02  6.8456713710E-02  3.9254693304E-01
  6.2200000000E+03  2.7222804978E+00  6.5920468171E+00  7.1339205111E-02  6.8791996466E-02  3.9299123601E-01
  6.2300000000E+03  2.7274582539E+00  6.5872389922E+00  7.1697966457E-02  6.9128338960E-02  3.9343523312E-01
  6.2400000000E+03  2.7326375300E+00  6.5824423763E+00  7.2057951890E-02  6.9465742461E-02  3.9387892674E-01
  6.2500000000E+03  2.7378183241E+00  6.5776569255E+00  7.2419163612E-02  6.9804208234E-02  3.9432231923E-01
  6.2600000000E+03  2.7430006343E+00  6.5728825961E+00  7.2781603827E-02  7.0143737538E-02  3.9476541296E-01
  6.2700000000E+03  2.7481844586E+00  6.5681193444E+00  7.3145274739E-02  7.0484331632E-02  3.9520821029E-01
  6.2800000000E+03  2.7533790993E+00  6.5634394136E+00  7.3510178551E-02  7.0826006344E-02  3.9565071355E-01
  6.2900000000E+03  2.7585759373E+00  6.5587754227E+00  7.3876317469E-02  7.1168749649E-02  3.9609292511E-01
  6.3000000000E+03  2.7637743051E+00  6.5541221471E+00  7.4243693697E-02  7.1512561763E-02  3.9653484730E-01
  6.3100000000E+03  2.7689742008E+00  6.5494795453E+00  7.4612309442E-02  7.1857443932E-02  3.9697648245E-01
  6.3200000000E+03  2.7741756224E+00  6.5448475760E+00  7.4982166908E-02  7.2203397398E-02  3.9741783291E-01
  6.3300000000E+03  2.7793785679E+00  6.5402261981E+00  7.5353268303E-02  7.2550423399E-02  3.9785890099E-01
  6.3400000000E+03  2.7845830353E+00  6.5356153707E+00  7.5725615833E-02  7.2898523172E-02  3.9829968903E-01
  6.3500000000E+03  2.7897890228E+00  6.5310150531E+00  7.6099211706E-02  7.3247697947E-02  3.9874019912E-01
  6.3600000000E+03  2.7949965283E+00  6.5264252048E+00  7.6474058128E-02  7.3597948952E-02  3.9918043311E-01
  6.3700000000E+03  2.8002055499E+00  6.5218457856E+00  7.6850157308E-02  7.3949277412E-02  3.9962039283E-01
  6.3800000000E+03  2.8054227812E+00  6.5173291506E+00  7.7227511455E-02  7.4301696054E-02  4.0006008014E-01
  6.3900000000E+03  2.8106443076E+00  6.5128443199E+00  7.7606122777E-02  7.4655199574E-02  4.0049949684E-01
  6.4000000000E+03  2.8158673646E+00  6.5083695813E+00  7.7985993484E-02  7.5009784475E-02  4.0093864478E-01
  6.4100000000E+03  2.8210919503E+00  6.5039048962E+00  7.8367125785E-02  7.5365451971E-02  4.0137752579E-01
  6.4200000000E+03  2.8263180628E+00  6.4994502264E+00  7.8749521890E-02  7.5722203270E-02  4.0181614167E-01
  6.4300000000E+03  2.8315457001E+00  6.4950055340E+00  7.9133184010E-02  7.6080039576E-02  4.0225449426E-01
  6.4400000000E+03  2.8367748603E+00  6.4905707811E+00  7.9518114355E-02  7.6438962093E-02  4.0269258536E-01
  6.4500000000E+03  2.8420055414E+00  6.4861459301E+00  7.9904315138E-02  7.6798972016E-02  4.0313041680E-01
  6.4600000000E+03  2.8472377416E+00  6.4817309435E+00  8.0291788569E-02  7.7160070542E-02  4.0356799039E-01
  6.4700000000E+03  2.8524714590E+00  6.4773257843E+00  8.0680536861E-02  7.7522258860E-02  4.0400530794E-01
  6.4800000000E+03  2.8577095139E+00  6.4729527332E+00  8.1070562227E-02  7.7885543485E-02  4.0444237124E-01
  6.4900000000E+03  2.8629552196E+00  6.4686377356E+00  8.1461866879E-02  7.8249932018E-02  4.0487918211E-01
  6.5000000000E+03  2.8682024558E+00  6.4643322515E+00  8.1854453031E-02  7.8615414175E-02  4.0531574235E-01
  6.5100000000E+03  2.8734512206E+00  6.4600362452E+00  8.2248322896E-02  7.8981991133E-02  4.0575205376E-01
  6.5200000000E+03  2.8787015119E+00  6.4557496813E+00  8.2643478689E-02  7.9349664068E-02  4.0618811813E-01
  6.5300000000E+03  2.8839533279E+00  6.4514725247E+00  8.3039922624E-02  7.9718434152E-02  4.0662393726E-01
  6.5400000000E+03  2.8892066668E+00  6.4472047404E+00  8.3437656916E-02  8.0088302549E-02  4.0705951293E-01
  6.5500000000E+03  2.8944615265E+00  6.4429462935E+00  8.3836683781E-02  8.0459270426E-02  4.0749484695E-01
  6.5600000000E+03  2.8997179054E+00  6.4386971494E+00  8.4237005434E-02  8.0831338940E-02  4.0792994109E-01
  6.5700000000E+03  2.9049758014E+00  6.4344572737E+00  8.4638624092E-02  8.1204509248E-02  4.0836479715E-01
  6.5800000000E+03  2.9102352127E+00  6.4302266320E+00  8.5041541971E-02  8.1578782503E-02  4.0879941690E-01
  6.5900000000E+03  2.9155024978E+00  6.4260560698E+00  8.5445761288E-02  8.1954173153E-02  4.0923380212E-01
  6.6000000000E+03  2.9207733883E+00  6.4219111320E+00  8.5851284261E-02  8.2330673641E-02  4.0966795460E-01
  6.6100000000E+03  2.9260458062E+00  6.4177751373E+00  8.6258113107E-02  8.2708280800E-02  4.1010187611E-01
  6.6200000000E+03  2.9313197496E+00  6.4136480527E+00  8.6666250045E-02  8.3086995768E-02  4.1053556843E-01
  6.6300000000E+03  2.9365952166E+00  6.4095298456E+00  8.7075697293E-02  8.3466819683E-02  4.1096903333E-01
  6.6400000000E+03  2.9418722054E+00  6.4054204837E+00  8.7486457070E-02  8.3847753676E-02  4.1140227258E-01
  6.6500000000E+03  2.9471507141E+00  6.4013199347E+00  8.7898531596E-02  8.4229798875E-02  4.1183528794E-01
  6.6600000000E+03  2.9524307409E+00  6.3972281663E+00  8.8311923090E-02  8.4612956405E-02  4.1226808120E-01
  6.6700000000E+03  2.9577122839E+00  6.3931451468E+00  8.8726633773E-02  8.4997227387E-02  4.1270065411E-01
  6.6800000000E+03  2.9629953413E+00  6.3890708443E+00  8.9142665865E-02  8.5382612936E-02  4.1313300844E-01
  6.6900000000E+03  2.9682800678E+00  6.3850065022E+00  8.9560021587E-02  8.5769114528E-02  4.1356514595E-01
  6.7000000000E+03  2.9735740737E+00  6.3810139320E+00  8.9978703161E-02  8.6156750943E-02  4.1399706840E-01
  6.7100000000E+03  2.9788696050E+00  6.3770298075E+00  9.0398712808E-02  8.6545505550E-02  4.1442877755E-01
  6.7200000000E+03  2.9841666596E+00  6.3730540982E+00  9.0820052750E-02  8.6935379452E-02  4.1486027516E-01
  6.7300000000E+03  2.9894652359E+00  6.3690867738E+00  9.1242725211E-02  8.7326373748E-02  4.1529156289E-01
  6.7400000000E+03  2.9947653319E+00  6.3651278042E+00  9.1666732413E-02  8.7718489536E-02  4.1572264205E-01
  6.7500000000E+03  3.0000669459E+00  6.3611771596E+00  9.2092076579E-02  8.8111727907E-02  4.1615351394E-01
  6.7600000000E+03  3.0053700761E+00  6.3572348100E+00  9.2518759933E-02  8.8506089950E-02  4.1658417987E-01
  6.7700000000E+03  3.0106747205E+00  6.3533007258E+00  9.2946784700E-02  8.8901576750E-02  4.1701464114E-01
  6.7800000000E+03  3.0159808775E+00  6.3493748776E+00  9.3376153104E-02  8.9298189386E-02  4.1744489906E-01
  6.7900000000E+03  3.0212885452E+00  6.3454572360E+00  9.3806867369E-02  8.9695928935E-02  4.1787495493E-01
  6.8000000000E+03  3.0265985417E+00  6.3415545849E+00  9.4238929722E-02  9.0094798571E-02  4.1830481005E-01
  6.8100000000E+03  3.0319166331E+00  6.3377146748E+00  9.4672342387E-02  9.0494814297E-02  4.1873446574E-01
  6.8200000000E+03  3.0372362450E+00  6.3338827192E+00  9.5107107591E-02  9.0895960446E-02  4.1916392328E-01
  6.8300000000E+03  3.0425573755E+00  6.3300586899E+00  9.5543227561E-02  9.1298238081E-02  4.1959318399E-01
  6.8400000000E+03  3.0478800228E+00  6.3262425591E+00  9.5980704523E-02  9.1701648261E-02  4.2002224916E-01
  6.8500000000E+03  3.0532041853E+00  6.3224342990E+00  9.6419540705E-02  9.2106192043E-02  4.2045112009E-01
  6.8600000000E+03  3.0585298610E+00  6.3186338817E+00  9.6859738334E-02  9.2511870478E-02  4.2087979809E-01
  6.8700000000E+03  3.0638570482E+00  6.3148412799E+00  9.7301299638E-02  9.2918684613E-02  4.2130828446E-01
  6.8800000000E+03  3.0691857452E+00  6.3110564659E+00  9.7744226846E-02  9.3326635491E-02  4.2173658049E-01
  6.8900000000E+03  3.0745159501E+00  6.3072794127E+00  9.8188522187E-02  9.3735724154E-02  4.2216468749E-01
  6.9000000000E+03  3.0798476612E+00  6.3035100931E+00  9.8634187889E-02  9.4145951634E-02  4.2259260675E-01
  6.9100000000E+03  3.0851810413E+00  6.2997498821E+00  9.9081226183E-02  9.4557319436E-02  4.2302033958E-01
  6.9200000000E+03  3.0905226443E+00  6.2960545047E+00  9.9529639298E-02  9.4969847473E-02  4.2344788727E-01
  6.9300000000E+03  3.0958657620E+00  6.2923666266E+00  9.9979429464E-02  9.5383517721E-02  4.2387525112E-01
  6.9400000000E+03  3.1012103928E+00  6.2886862217E+00  1.0043059891E-01  9.5798331203E-02  4.2430243243E-01
  6.9500000000E+03  3.1065565348E+00  6.2850132642E+00  1.0088314988E-01  9.6214288937E-02  4.2472943250E-01
  6.9600000000E+03  3.1119041864E+00  6.2813477284E+00  1.0133708458E-01  9.6631391936E-02  4.2515625263E-01
  6.9700000000E+03  3.1172533457E+00  6.2776895886E+00  1.0179240527E-01  9.7049641211E-02  4.2558289411E-01
  6.9800000000E+03  3.1226040110E+00  6.2740388192E+00  1.0224911416E-01  9.7469037767E-02  4.2600935823E-01
  6.9900000000E+03  3.1279561807E+00  6.2703953950E+00  1.0270721350E-01  9.7889582606E-02  4.2643564631E-01
  7.0000000000E+03  3.1333098529E+00  6.2667592907E+00  1.0316670551E-01  9.8311276726E-02  4.2686175963E-01
  7.0100000000E+03  3.1386650260E+00  6.2631304811E+00  1.0363054724E-01  9.8736803458E-02  4.2728769950E-01
  7.0200000000E+03  3.1440216982E+00  6.2595089412E+00  1.0409580848E-01  9.9163499954E-02  4.2771346721E-01
  7.0300000000E+03  3.1493847630E+00  6.2559369043E+00  1.0456249152E-01  9.9591382847E-02  4.2813906405E-01
  7.0400000000E+03  3.1547509125E+00  6.2523855823E+00  1.0503059868E-01  1.0002044287E-01  4.2856449133E-01
  7.0500000000E+03  3.1601185689E+00  6.2488413129E+00  1.0550013227E-01  1.0045067606E-01  4.2898975034E-01
  7.0600000000E+03  3.1654877303E+00  6.2453040722E+00  1.0597109462E-01  1.0088208343E-01  4.2941484238E-01
  7.0700000000E+03  3.1708583952E+00  6.2417738362E+00  1.0644348802E-01  1.0131466599E-01  4.2983976874E-01
  7.0800000000E+03  3.1762305617E+00  6.2382505813E+00  1.0691731479E-01  1.0174842478E-01  4.3026453073E-01
  7.0900000000E+03  3.1816042281E+00  6.2347342837E+00  1.0739257725E-01  1.0218336077E-01  4.3068912961E-01
  7.1000000000E+03  3.1869793929E+00  6.2312249200E+00  1.0786927772E-01  1.0261947499E-01  4.3111356636E-01
  7.1100000000E+03  3.1923560542E+00  6.2277224667E+00  1.0834741850E-01  1.0305676844E-01  4.3153784187E-01
  7.1200000000E+03  3.1977342104E+00  6.2242269006E+00  1.0882700191E-01  1.0349524209E-01  4.3196195703E-01
  7.1300000000E+03  3.2031138598E+00  6.2207381985E+00  1.0930803028E-01  1.0393489695E-01  4.3238591275E-01
  7.1400000000E+03  3.2084969264E+00  6.2172726287E+00  1.0979050591E-01  1.0437574063E-01  4.3280970994E-01
  7.1500000000E+03  3.2138858820E+00  6.2138509410E+00  1.1027443112E-01  1.0481778282E-01  4.3323334950E-01
  7.1600000000E+03  3.2192763382E+00  6.2104359148E+00  1.1075980823E-01  1.0526100949E-01  4.3365683233E-01
  7.1700000000E+03  3.2246682932E+00  6.2070275278E+00  1.1124663956E-01  1.0570542163E-01  4.3408015935E-01
  7.1800000000E+03  3.2300617454E+00  6.2036257578E+00  1.1173492742E-01  1.0615102019E-01  4.3450333147E-01
  7.1900000000E+03  3.2354566931E+00  6.2002305827E+00  1.1222467415E-01  1.0659780615E-01  4.3492634958E-01
  7.2000000000E+03  3.2408531346E+00  6.1968419808E+00  1.1271588204E-01  1.0704578048E-01  4.3534921460E-01
  7.2100000000E+03  3.2462510683E+00  6.1934599301E+00  1.1320855343E-01  1.0749494413E-01  4.3577192745E-01
  7.2200000000E+03  3.2516504925E+00  6.1900844089E+00  1.1370269063E-01  1.0794529805E-01  4.3619448902E-01
  7.2300000000E+03  3.2570514055E+00  6.1867153956E+00  1.1419829597E-01  1.0839684319E-01  4.3661690024E-01
  7.2400000000E+03  3.2624538058E+00  6.1833528687E+00  1.1469537177E-01  1.0884958051E-01  4.3703916202E-01
  7.2500000000E+03  3.2678576916E+00  6.1799968067E+00  1.1519392034E-01  1.0930351094E-01  4.3746127526E-01
  7.2600000000E+03  3.2732671949E+00  6.1766812284E+00  1.1569394401E-01  1.0975865081E-01  4.3788324088E-01
  7.2700000000E+03  3.2786802570E+00  6.1733889863E+00  1.1619544510E-01  1.1021499364E-01  4.3830505980E-01
  7.2800000000E+03  3.2840948117E+00  6.1701030208E+00  1.1669842594E-01  1.1067253273E-01  4.3872673293E-01
  7.2900000000E+03  3.2895108574E+00  6.1668233113E+00  1.1720288885E-01  1.1113126901E-01  4.3914826119E-01
  7.3000000000E+03  3.2949283923E+00  6.1635498374E+00  1.1770883614E-01  1.1159120339E-01  4.3956964550E-01
  7.3100000000E+03  3.3003474150E+00  6.1602825788E+00  1.1821627016E-01  1.1205233679E-01  4.3999088676E-01
  7.3200000000E+03  3.3057679237E+00  6.1570215150E+00  1.1872519321E-01  1.1251467013E-01  4.4041198591E-01
  7.3300000000E+03  3.3111899168E+00  6.1537666260E+00  1.1923560763E-01  1.1297820431E-01  4.4083294387E-01
  7.3400000000E+03  3.3166133928E+00  6.1505178916E+00  1.1974751574E-01  1.1344294024E-01  4.4125376154E-01
  7.3500000000E+03  3.3220383499E+00  6.1472752919E+00  1.2026091987E-01  1.1390887882E-01  4.4167443985E-01
  7.3600000000E+03  3.3274647866E+00  6.1440388069E+00  1.2077582234E-01  1.1437602094E-01  4.4209497973E-01
  7.3700000000E+03  3.3328927013E+00  6.1408084169E+00  1.2129222548E-01  1.1484436750E-01  4.4251538210E-01
  7.3800000000E+03  3.3383271934E+00  6.1376250091E+00  1.2181013162E-01  1.1531393990E-01  4.4293564787E-01
  7.3900000000E+03  3.3437641514E+00  6.1344554130E+00  1.2232954309E-01  1.1578472278E-01  4.4335577799E-01
  7.4000000000E+03  3.3492025941E+00  6.1312917366E+00  1.2285046221E-01  1.1625671311E-01  4.4377577336E-01
  7.4100000000E+03  3.3546425199E+00  6.1281339608E+00  1.2337289131E-01  1.1672991175E-01  4.4419563492E-01
  7.4200000000E+03  3.3600839273E+00  6.1249820667E+00  1.2389683272E-01  1.1720431959E-01  4.4461536359E-01
  7.4300000000E+03  3.3655268145E+00  6.1218360355E+00  1.2442228878E-01  1.1767993748E-01  4.4503496031E-01
  7.4400000000E+03  3.3709711802E+00  6.1186958483E+00  1.2494926180E-01  1.1815676629E-01  4.4545442590E-01
  7.4500000000E+03  3.3764170225E+00  6.1155614864E+00  1.2547775413E-01  1.1863480687E-01  4.4587376093E-01
  7.4600000000E+03  3.3818643400E+00  6.1124329313E+00  1.2600776809E-01  1.1911406009E-01  4.4629296599E-01
  7.4700000000E+03  3.3873131311E+00  6.1093101644E+00  1.2653930601E-01  1.1959452679E-01  4.4671204169E-01
  7.4800000000E+03  3.3927633943E+00  6.1061931674E+00  1.2707237023E-01  1.2007620781E-01  4.4713098861E-01
  7.4900000000E+03  3.3982151278E+00  6.1030819218E+00  1.2760696307E-01  1.2055910399E-01  4.4754980737E-01
  7.5000000000E+03  3.4036732062E+00  6.1000145060E+00  1.2814308688E-01  1.2104323733E-01  4.4796849855E-01
  7.5100000000E+03  3.4091338472E+00  6.0969611847E+00  1.2868074398E-01  1.2152859256E-01  4.4838706276E-01
  7.5200000000E+03  3.4145959650E+00  6.0939134516E+00  1.2921993670E-01  1.2201516582E-01  4.4880550060E-01
  7.5300000000E+03  3.4200595582E+00  6.0908712892E+00  1.2976066739E-01  1.2250295793E-01  4.4922381268E-01
  7.5400000000E+03  3.4255246252E+00  6.0878346797E+00  1.3030293837E-01  1.2299196972E-01  4.4964199960E-01
  7.5500000000E+03  3.4309911644E+00  6.0848036059E+00  1.3084675198E-01  1.2348220200E-01  4.5006006198E-01
  7.5600000000E+03  3.4364591743E+00  6.0817780501E+00  1.3139211055E-01  1.2397365558E-01  4.5047800041E-01
  7.5700000000E+03  3.4419286533E+00  6.0787579953E+00  1.3193901642E-01  1.2446633126E-01  4.5089581551E-01
  7.5800000000E+03  3.4473995998E+00  6.0757434240E+00  1.3248747193E-01  1.2496022986E-01  4.5131350788E-01
  7.5900000000E+03  3.4528720124E+00  6.0727343191E+00  1.3303747942E-01  1.2545535216E-01  4.5173107815E-01
  7.6000000000E+03  3.4583458894E+00  6.0697306635E+00  1.3358904121E-01  1.2595169896E-01  4.5214852691E-01
  7.6100000000E+03  3.4638212294E+00  6.0667324403E+00  1.3414215965E-01  1.2644927104E-01  4.5256585480E-01
  7.6200000000E+03  3.4693015408E+00  6.0637663631E+00  1.3469683708E-01  1.2694808561E-01  4.5298306242E-01
  7.6300000000E+03  3.4747856496E+00  6.0608233392E+00  1.3525307583E-01  1.2744813822E-01  4.5340015039E-01
  7.6400000000E+03  3.4802712275E+00  6.0578855955E+00  1.3581087824E-01  1.2794941884E-01  4.5381711933E-01
  7.6500000000E+03  3.4857582730E+00  6.0549531157E+00  1.3637024665E-01  1.2845192825E-01  4.5423396986E-01
  7.6600000000E+03  3.4912467846E+00  6.0520258835E+00  1.3693118340E-01  1.2895566720E-01  4.5465070260E-01
  7.6700000000E+03  3.4967367608E+00  6.0491038826E+00  1.3749369083E-01  1.2946063647E-01  4.5506731817E-01
  7.6800000000E+03  3.5022282000E+00  6.0461870969E+00  1.3805777129E-01  1.2996683681E-01  4.5548381720E-01
  7.6900000000E+03  3.5077211007E+00  6.0432755103E+00  1.3862342710E-01  1.3047426897E-01  4.5590020031E-01
  7.7000000000E+03  3.5132154614E+00  6.0403691068E+00  1.3919066062E-01  1.3098293370E-01  4.5631646813E-01
